36.02661277041948
35.97127570254376
35.91615889060292
35.86126170840296
35.80658299206332
35.752121705784646
35.69787674344237
35.64384672051412
35.59003080505473
35.53642769622367
35.48303631099705
35.42985592753317
35.37688523949186
35.32412293534387
35.27156771402287
35.21921848903296
35.16707488059469
35.11513567734938
35.06339956424041
35.011865236796055
34.96053147524337
34.909397983009264
34.85846377456184
34.80772756092781
34.75718806348402
34.706844018593934
34.65669497656159
34.60674026942927
34.55697864227058
34.5074088501794
34.45802965816921
34.40884016840206
34.35983988933064
34.311027851468545
34.2624030807395
34.21396460998046
34.1657114788809
34.117642733922864
34.06975742832152
34.022054621966454
33.97453338136345
33.92719278773712
33.88003202807459
33.83305024093068
33.786246543160075
33.739620057681144
33.69316991342485
33.64689524528419
33.600795194064105
33.554868906431935
33.50911553486839
33.463534237618966
33.41812420345899
33.37288464482017
33.327814737812396
33.28291366337652
33.238180607981064
33.19361476357657
33.149215327550365
33.104981502681746
33.06091249709773
33.01700752422908
32.97326580194726
32.92968654676074
32.886268990606766
32.843012373470714
32.79991594036825
32.75697894130463
32.714200631234576
32.67158027002241
32.62911712240266
32.586810457941006
32.544659550995604
32.50266364543732
32.46082196827425
32.4191338080644
32.3775984588042
32.33621521908636
32.294983392063465
32.25390228541192
32.212971211296264
32.17218948633383
32.13155643155968
32.09107137239199
32.050733638597606
32.01054256425809
31.970497487735962
31.930597751530215
31.890842665560143
31.851231549285657
31.811763754968506
31.772438639016293
31.73325556195026
31.694213888373394
31.65531298693884
31.616552230318554
31.577930995172355
31.539448662117163
31.501104615696576
31.46289824435071
31.42482894038637
31.3868960999474
31.349099121490973
31.311437374972876
31.273910252958817
31.23651716542598
31.19925752605639
31.16213075220881
31.12513626489085
31.08827348873135
31.051541851953033
31.014940786345367
30.97846972723773
30.942128113472776
30.905915387380062
30.869830994749925
30.833874384807565
30.7980450101874
30.76234232690764
30.726765794345074
30.691314875210125
30.655989035522083
30.620787744584607
30.585710452014634
30.550756594628716
30.515925650882348
30.48121710306825
30.446630436643268
30.412165140205083
30.377820705469258
30.343596627246388
30.3094924034195
30.27550753492164
30.24164152571368
30.20789388276231
30.17426411601819
30.14075173839438
30.107356265744837
30.074077216843257
30.040914113361957
30.007866479851025
29.974933843717643
29.94211573520557
29.90941167941604
29.87682115679821
29.844343695026616
29.811978835105368
29.77972612077842
29.747585098510047
29.715555317465537
29.68363632949201
29.65182768909946
29.620128953441867
29.588539682298588
29.55705943805582
29.525687785688273
29.494424292740977
29.46326852931122
29.432220068030748
29.401278484047957
29.37044335501038
29.339714261047245
29.309090784752215
29.278572510964512
29.248158983759005
29.217849759683144
29.18764443037582
29.15754258986115
29.12754383453205
29.097647763133843
29.067853976748108
29.038162078776608
29.00857167492536
28.979082373188852
28.949693783834423
28.920405519386684
28.891217194612157
28.86212842650403
28.833138834266975
28.804248039302195
28.7754556651925
28.74676133768756
28.718164684689285
28.689665336237297
28.66126290727171
28.632956978452345
28.604747181622074
28.57663315447238
28.5486145367672
28.52069097032906
28.492862099025327
28.46512756875453
28.437487027432873
28.409940124980753
28.38248651330952
28.355125846308205
28.32785777983048
28.300681971681644
28.27359808160574
28.246605771272794
28.219704704266153
28.192894546069883
28.16617496405634
28.139545627473787
28.113006205652578
28.086556340289142
28.060195691297302
28.033923930799748
28.007740732768134
27.9816457730109
27.955638729161254
27.929719280665243
27.903887108769865
27.878141896511384
27.852483328703613
27.8269110919264
27.801424874514137
27.776024366544405
27.750709259826667
27.725479247891094
27.700334025977483
27.675273291024205
27.6502967416573
27.625404078179642
27.6005950025602
27.575869218423353
27.55122643103832
27.52666634730867
27.502188675761907
27.477793126539147
27.45347941138487
27.429247243636752
27.405096338215575
27.38102641161525
27.357037181892853
27.333128368658816
27.30929969306713
27.285550877805665
27.26188164708657
27.238291726636692
27.214780843688157
27.19134872696894
27.167995106693585
27.14471971455393
27.12152228370995
27.09840254815119
27.0753602392985
27.052395091626536
27.029506841554173
27.0066952269406
26.983959987076357
26.961300862674502
26.938717595861807
26.916209930170062
26.89377761052736
26.871420383249575
26.849137996031804
26.82693019793993
26.804796739402217
26.782737372200987
26.76075184946437
26.738839925658112
26.717001356577416
26.6952358993389
26.673543312372576
26.65192335541389
26.630375789495854
26.60890037694123
26.58749688135472
26.566165067615323
26.54490470186862
26.523715551519246
26.502597385223304
26.481549972880956
26.460573085628937
26.439666495833237
26.418829977081792
26.398063304177224
26.377366253129654
26.35673860114957
26.336180126640716
26.3156906091931
26.295269829575975
26.27491756973093
26.254633612765037
26.234417742944
26.214269745482497
26.19418940541404
26.174176508451072
26.154230841454236
26.134352192421392
26.114540350481025
26.094795105885627
26.07511625000514
26.055503575320497
26.03595687541715
26.016475944978666
25.997060579780403
25.977710576683194
25.95842573362707
25.939205849625097
25.920050724757175
25.90096016016393
25.881933958040648
25.86297192163125
25.844073855222312
25.825239564137114
25.80646885472976
25.787761534379328
25.769117411484057
25.750536295455596
25.73201799671326
25.71356232667838
25.69516909776865
25.67683812339254
25.658569217943718
25.64036219679559
25.622216876295763
25.60413307376067
25.58611060747014
25.568149296662064
25.550248961527068
25.532409423203255
25.514630503770956
25.49691202624754
25.47925381458225
25.46165569365109
25.444117487445087
25.426639019196017
25.409220114609667
25.391860600315145
25.374560303853535
25.35731905367292
25.34013667912338
25.323013010452073
25.305947878798335
25.288941116188823
25.27199255553267
25.2551020306167
25.238269376100675
25.221494427512553
25.20477702124383
25.188116994544856
25.17151418552021
25.15496843312414
25.138479577155984
25.122047458255658
25.10567191789916
25.08935279839411
25.07308994287533
25.05688319530046
25.040732400445577
25.02463740390087
25.008598052066354
24.992614192147585
24.976685672151426
24.960812340881848
24.944994047935747
24.9292306436988
24.913521979341333
24.897867906814255
24.882268278844986
24.866722948933432
24.851231771347972
24.835794601121513
24.82041129404752
24.805081706676113
24.789805696258362
24.77458311774316
24.759413826732672
24.744297680857223
24.729234538493834
24.714224258762382
24.699266701521772
24.68436172736616
24.66950919762117
24.654708974340164
24.63996092030054
24.625264899000026
24.610620774653032
24.59602841218704
24.581487677238947
24.566998436151525
24.552560555969855
24.538173904437784
24.523838349994435
24.50955376177072
24.495320009585882
24.48113696394406
24.467004496030892
24.452922477710125
24.43889078152025
24.424909280671194
24.410977849040965
24.397096361172398
24.383264692269872
24.36948271819609
24.355750315468818
24.342067361257737
24.32843373338124
24.314849310303277
24.301313971130256
24.2878275956079
24.274390064118183
24.261001257676263
24.24766105792744
24.23436934714413
24.22112600822288
24.20793092443902
24.194783976785523
24.181685047582647
24.16863402033163
24.1556307791511
24.142675208774094
24.12976719454514
24.11690662241733
24.104093378949404
24.091327351302933
24.07860842723938
24.06593649511734
24.05331144388968
24.040733163100764
24.028201542883657
24.0157164739574
24.003277847624233
23.99088555576691
23.978539490845986
23.966239545897142
23.953985614528513
23.941777590918065
23.92961536981096
23.917498846516935
23.905427916907755
23.89340247741461
23.88142242502558
23.869487657283088
23.857598072281412
23.845753568664165
23.83395404562182
23.822199402889257
23.81048954074331
23.79882436000034
23.787203762013824
23.775627648671982
23.76409592239536
23.752608486134513
23.74116524336764
23.729766098098256
23.718410954852885
23.707099718229266
23.695832291097854
23.684608577530557
23.67342848228543
23.662291910639063
23.651198768384294
23.640148961827965
23.629142397788627
23.618178983594333
23.60725862708039
23.596381236587163
23.585546720957872
23.574754989536416
23.56400595216522
23.553299519183074
23.542635601423004
23.53201411021016
23.521434957359713
23.510898055174763
23.500403316444267
23.489950654440985
23.47953998291944
23.469171216113875
23.45884426873625
23.448559055974254
23.438315493489284
23.428113497414515
23.4179529843529
23.407833871375274
23.397756076018382
23.387719516282985
23.377724110631956
23.367769777988386
23.357856437733712
23.34798400970585
23.338152414197364
23.328361571953607
23.318611404170912
23.30890183249479
23.299232779018123
23.28960416627937
23.28001591889784
23.27046796251703
23.260960219125277
23.25149261104961
23.24206506106036
23.23267749236939
23.223329828628327
23.214021993926785
23.204753912790647
23.195525510180314
23.186336711489
23.177187442541026
23.168077629590126
23.15900719931774
23.149976078831404
23.140984195663027
23.132031477767292
23.123117853519997
23.114243251716452
23.10540760156987
23.096610832709743
23.087852875180282
23.07913365943885
23.07045311635436
23.06181117720578
23.05320777368053
23.04464283787301
23.036116302283045
23.027628099814393
23.019178163773265
23.010766427866805
23.002392826201657
22.994057293282467
22.98575976401046
22.977500173681985
22.96927845798709
22.961094553008095
22.95294839521821
22.944839921480096
22.936769069044512
22.928735775548926
22.920739979016147
22.912781617852968
22.904860630848827
22.89697695717447
22.889130536380605
22.881321308396636
22.873549213529294
22.865814192461393
22.858116186250516
22.850455136327753
22.842830984551046
22.835243671894865
22.827693138864507
22.820179326337204
22.812702175562748
22.805261628162196
22.797857626126596
22.790490111815725
22.783159027956817
22.77586431764332
22.768605924333674
22.76138379185005
22.754197864377165
22.74704808646104
22.739934403007823
22.732856759282587
22.725815100908154
22.71880937386391
22.711839524484645
22.70490549945942
22.698007245830393
22.691144710991686
22.684317842688284
22.677526589014885
22.670770898414794
22.66405071967886
22.65736600194433
22.6507166946938
22.644102747754136
22.637524111295395
22.63098073582979
22.624472572210617
22.617999571631234
22.61156168562402
22.605158866059355
22.598791065144603
22.592458235423113
22.586160329773207
22.57989730140721
22.573669103870454
22.567475691040304
22.5613170171252
22.555193036663713
22.549103704523557
22.54304897590069
22.537028806318354
22.531043151626175
22.52509196799922
22.519175211937103
22.513292840263084
22.507444810120237
22.50163107754583
22.495851597723473
22.49010632669667
22.48439522083234
22.47871823681985
22.473075331670145
22.4674664627148
22.461891587605155
22.45635066431142
22.450843651121776
22.44537050664154
22.43993118979226
22.43452565981088
22.42915387624888
22.423815798971443
22.41851138815661
22.41324060429445
22.40800340818626
22.402799760943736
22.397629623988156
22.39249295904961
22.387389728166184
22.3823198936832
22.377283418252418
22.37228026483128
22.367310396682136
22.362373777371513
22.357470370769345
22.352600141048235
22.347763052682733
22.3429590704486
22.338188159422092
22.333450284979243
22.328745412795175
22.32407350884338
22.31943453939504
22.314828471018334
22.31025527057778
22.305714905233526
22.301207342440733
22.29673254994888
22.292290495801133
22.287881148333685
22.283504476175143
22.279160448245875
22.274849033757388
22.270570202211733
22.266323923400865
22.262110167406053
22.257928904597286
22.253780105620564
22.24966374045034
22.245579778200977
22.241528188290594
22.237508940426117
22.23352200460265
22.229567351102894
22.225644950496484
22.221754773639454
22.217896791673574
22.214070976025823
22.210277298407757
22.20651573081496
22.20278624552648
22.199088815104233
22.195423412392483
22.191790010517273
22.18818858288589
22.1846191031863
22.181081545386657
22.177575883734754
22.17410209275751
22.17066014726045
22.1672500223272
22.163871693319
22.160525135874195
22.157210325907748
22.153927239610763
22.150675853450014
22.147456144167453
22.144268088779775
22.141111664577938
22.137986849126715
22.134893620264265
22.131831956101674
22.128801835022518
22.125803235682454
22.12283613700879
22.119900518200055
22.11699635872561
22.11412363832524
22.111282337008728
22.108472435055496
22.105693913014214
22.102946751702397
22.10023093220606
22.097546435879302
22.09489324434401
22.092271339489436
22.089680703471885
22.087121318714345
22.084593168172113
22.082096238255726
22.079630511562662
22.077195969398847
22.07479259333721
22.0724203652173
22.07007926714492
22.06776928149176
22.065490390895057
22.06324257825723
22.061025826745528
22.0588401197917
22.05668544109167
22.05456177460518
22.0524691045555
22.050407415429078
22.048376691975268
22.046376919205983
22.044408082395424
22.042470167079767
22.040563159056884
22.03868704438605
22.03684180938769
22.035027440643063
22.033243924994036
22.0314912495428
22.029769401651617
22.028078368942584
22.026418139297363
22.02478870085696
22.023190042021486
22.02162215144994
22.020085018059945
22.01857863102759
22.017102979787172
22.015658054031015
22.014243843709238
22.012860339029604
22.01150753045729
22.01018540871472
22.008893964781386
22.007633189893667
22.00640307554466
22.00520361348403
22.004034795717832
22.00289661450837
22.001789062374048
22.00071213208923
21.999665816684093
21.998650109444515
21.99766500391193
21.99671049388321
21.995786573410566
21.99489323680142
21.99403047861831
21.993198293678777
21.9923966770553
21.991625624075166
21.990885130320436
21.99017519234597
21.989495806097388
21.988846965701335
21.98822866551725
21.987640900159448
21.987083664496986
21.986556953653558
21.986060763007398
21.985595088191175
21.98515992509191
21.98475526985088
21.984381118863535
21.984037468779434
21.983724316502148
21.983441659189232
21.983189494252127
21.982967819356123
21.982776632420318
21.982615931617552
21.982485715374366
21.982385982371
21.982316731541324
21.982277962072843
21.982269673406662
21.982291865237485
21.982344537513594
21.982427690436857
21.98254132446272
21.98268544030023
21.982860038912033
21.983065121514404
21.983300689577252
21.983566744824184
21.983863289232502
21.98419032503326
21.984547854711312
21.984935881005352
21.985354406907977
21.985803435665737
21.986282970779225
21.986793016003116
21.987333575346266
21.987904653071787
21.988506253697135
21.989138381994202
21.989801042989413
21.99049424196382
21.99121798445324
21.991972276248326
21.99275712339473
21.993572532193184
21.99441850919967
21.995295061225523
21.996202195337595
21.997139918858384
21.99810823936619
21.99910716469528
22.00013670293603
22.001196862452304
22.002287651208142
22.00340907595946
22.004561143570022
22.005743861159583
22.006957236104032
22.00820127603552
22.009475988842606
22.010781382670388
22.0121174659207
22.013484247252205
22.014881735580623
22.01630994007886
22.01776887017718
22.01925853556341
22.020778946183114
22.02233011223978
22.023912044195
22.025524752768717
22.027168248939375
22.028842543944176
22.03054764927928
22.03228357670002
22.034050338221146
22.03584794611705
22.037676412922
22.039535751430407
22.041425974697052
22.043347096037355
22.045299129027622
22.047282087505337
22.049295985569405
22.051340837580458
22.053416658161122
22.055523462196305
22.0576612648335
22.05983008148308
22.06202992781861
22.06426081977716
22.066522773559605
22.068815805630972
22.07113993272074
22.07349517182321
22.07588154019782
22.078299055369495
22.080747735129
22.083227597533288
22.085738660905893
22.088280943837262
22.090854465185153
22.093459244075003
22.096095299900316
22.09876265232306
22.101461321274062
22.10419132695341
22.106952689830866
22.109745430646267
22.11256957040997
22.115425130403267
22.11831213290687
22.121230598796316
22.12418054766281
22.127161999367537
22.13017497404206
22.133219492088735
22.136295574181055
22.139403241264105
22.142542514554936
22.145713415542986
22.148915965990515
22.152150187933003
22.155416103679613
22.1587137358136
22.162043107192776
22.16540424094994
22.16879716049336
22.1722218895072
22.175678451952017
22.179166872065235
22.182687174361593
22.186239383633662
22.18982352495233
22.1934396236673
22.197087705407576
22.200767796082
22.204479921879766
22.208224109270922
22.21200038500692
22.215808776121143
22.219649309929448
22.22352201403071
22.22742691630739
22.231364044926075
22.23533342833807
22.239335095279948
22.24336907477414
22.24743539612954
22.25153408894205
22.255665183095246
22.259828708760914
22.264024696399712
22.268253176761778
22.27251418088734
22.276807740107373
22.2811338860442
22.285492650612195
22.289884066018367
22.294308164763088
22.298764979640694
22.303254543740216
22.307776890446014
22.312332053438485
22.31692006669475
22.32154096448936
22.326194781394996
22.330881552283188
22.335601312325032
22.34035409699191
22.345139942056246
22.349958883592222
22.35481095797655
22.359696201889207
22.364614652314224
22.369566346540424
22.374551322162226
22.379569617080406
22.38462126945593
22.38970631606672
22.394824792866252
22.399976736283733
22.40516218305366
22.41038117021661
22.41563373511997
22.4209199154187
22.4262397490761
22.43159327436458
22.436980529866446
22.442401554474696
22.44785638739378
22.45334506814045
22.45886763654455
22.464424132749812
22.470014597214714
22.475639070713296
22.481297594336006
22.48699020949054
22.492716957902704
22.498477881617283
22.50427302299889
22.510102424732864
22.515966129826143
22.521864181608187
22.527796623731827
22.533763500174228
22.539764855237767
22.545800733550983
22.551871180069504
22.557976240076968
22.564115959186015
22.570290383339202
22.576499558809992
22.58274353220371
22.58902235045856
22.595336060846567
22.601684710974606
22.608068348785412
22.614487022558574
22.620940780911578
22.62742967280082
22.633953747522657
22.640513054714468
22.647107644355692
22.653737566768903
22.660402872620867
22.667103612923665
22.673839839035747
22.68061160266305
22.687418955860107
22.69426195103116
22.701140640931296
22.708055078667577
22.71500531770019
22.72199141184359
22.729013415267687
22.736071382499002
22.74316536842184
22.750295428279514
22.75746161767551
22.764663992574725
22.771902609304668
22.7791775245567