36.08956347146477
35.993156458176685
35.89731428766735
35.80203217907578
35.70730540559195
35.61312929369594
35.51949922241001
35.426410622563175
35.33385897606806
35.241839815209964
35.150348721947644
35.05938132722577
34.96893331029876
34.8790003980658
34.7895783644168
34.700663029589116
34.612250259534804
34.5243359652982
34.43691610240367
34.34998667025331
34.263543711534375
34.17758331163633
34.09210159807727
34.00709473993959
33.92255894731465
33.83849047075641
33.754885600743705
33.671740667151106
33.589052038728134
33.50681612258682
33.42502936369725
33.343688244391075
33.26278928387282
33.18232903773892
33.10230409750411
33.02271109013536
32.94354667759293
32.86480755637861
32.7864904570909
32.70859214398707
32.631109414552
32.55403909907348
32.47737806022422
32.40112319336407
32.32527142815799
32.24981971882534
32.17476504925737
32.10010443381221
32.02583491693201
31.951953572765646
31.878457504797257
31.80534384548028
31.7326097558769
31.66025242530299
31.58826907097821
31.516656937681372
31.4454132974109
31.374535449050246
31.304020718038263
31.23386645604444
31.16407004064887
31.09462887502691
31.025540387638376
30.956802031921356
30.88841128599042
30.82036565233913
30.752662657547
30.685299851990493
30.61827480955834
30.55158512737078
30.48522842550299
30.41920234671227
30.353504556169277
30.28813274119297
30.223084610989353
30.15835789639389
30.09395034961757
30.02985974399655
29.96608387374524
29.90262055371299
29.839467619143985
29.776622925440673
29.714084347930342
29.651849781634997
29.58991714104443
29.52828435989239
29.46694939093584
29.405910205737296
29.345164794450078
29.284711165606538
29.224547345909183
29.164671380024647
29.105081330380425
29.04577527696439
28.986751317127055
28.9280075653864
28.86954215323546
28.8113532289524
28.75343895741317
28.695797519906677
28.63842711345521
28.581325946475403
28.524492243902316
28.467924247009204
28.411620212655766
28.355578413116543
28.2997971359115
28.24427468363897
28.18900937381067
28.13399953868896
28.07924352512621
28.024739694406225
27.97048642208781
27.91648209785029
27.862725125341104
27.809213922025297
27.755946919037026
27.702922561032945
27.650139306047468
27.597595625349893
27.545290003303393
27.493220937225747
27.44138693725189
27.3897865261982
27.338418239428503
27.287280624721774
27.236372242141513
27.1856916639068
27.135237474264905
27.085008269365563
27.035002657136776
26.985219257162225
26.93565670056017
26.88631362986382
26.837188698903336
26.7882805726891
26.73958792729659
26.691109449752602
26.64284383792289
26.594789800401177
26.546946056399577
26.49931133564027
26.451884378248604
26.404663934647434
26.35764876545275
26.31083764137063
26.264229343095366
26.21782266120889
26.171616396081365
26.12560935777302
26.07980036593711
26.03418824972412
25.98877184768703
25.94355000768776
25.89852158680478
25.85368545124168
25.809040476236987
25.76458554676018
25.72031956091355
25.676241418023597
25.632350024486787
25.588644295354836
25.545123154249826
25.501785533280316
25.45863037295848
25.41565662211819
25.372863237834032
25.33024918534133
25.28781343795705
25.24555497700161
25.20347279172169
25.161565879213835
25.119833244348964
25.078273899697813
25.036886865457145
24.995671169376898
24.954625846688085
24.913749940031572
24.873042499387672
24.83250258200652
24.79212925233923
24.75192158196989
24.711878649548257
24.67199954072328
24.63228334807732
24.592729171061144
24.55333611592964
24.514103295678268
24.47502982998021
24.436114845124216
24.397357473953164
24.358756855803303
24.320312136444162
24.28202246801913
24.243887008986697
24.205904924062352
24.16807538416111
24.130397566340694
24.09287065374531
24.055493835550084
24.01826630690606
23.98118726888584
23.944255928429794
23.907471498292885
23.87083319699202
23.834340248754067
23.797991883464313
23.761787336615576
23.72572584925785
23.689806667948453
23.654029044702767
23.61839223694545
23.58289550746224
23.547538124352204
23.512319360980566
23.477238495931978
23.442294812964327
23.407487600963023
23.37281615389579
23.33827977076791
23.303877755577922
23.269609417273866
23.235474069709927
23.201471031603532
23.167599626492947
23.133859182695243
23.10024903326481
23.06676851595219
23.033416973163437
23.000193751919806
22.967098203817965
22.93412968499053
22.901287556067086
22.868571177749832
22.835979903769193
22.80351310427595
22.771170154902972
22.73895043562053
22.7068533306993
22.67487822867365
22.643024522305364
22.611291608547702
22.579678888509864
22.54818576742178
22.516811654599284
22.48555596340961
22.45441811123729
22.423397519450365
22.392493613366938
22.361705822222063
22.33103357913499
22.30047632107672
22.270033488837896
22.239704526997013
22.209488883888927
22.17938601157374
22.14939536580593
22.119516406003807
22.0897485952193
22.060091400108018
22.03054429089961
22.00110674136844
21.971778228804524
21.942558233984766
21.913446241144495
21.884441737949253
21.855544215466878
21.82675316813986
21.79806809375795
21.769488493431094
21.741013871562537
21.71264373517442
21.684377592822536
21.656214956866478
21.628155342910517
21.600198269739572
21.572343259293692
21.54458983664277
21.516937529961496
21.489385870504556
21.46193439258207
21.43458263353529
21.407330133712467
21.38017643644504
21.353121088023972
21.326163637676355
21.29930363754224
21.272540642651663
21.24587421090191
21.219303903035005
21.19282928261537
21.16644991600775
21.140165372355323
21.11397522355801
21.087879044250993
21.061876411783437
21.035966906197444
21.010150110207128
20.984425609177972
20.95879299110632
20.93325184659909
20.90780176885366
20.88244235363794
20.857173199270665
20.831993906601824
20.806904078993288
20.781903322299634
20.75699124484912
20.732167457424858
20.70743157180075
20.68278320061399
20.65822196044963
20.633747470304325
20.609359351551397
20.585057227922857
20.560840725491573
20.536709472653648
20.512663100110892
20.488701240853533
20.464823530143008
20.441029605494965
20.4173191066624
20.393691675618935
20.370146956542275
20.346684595797786
20.32330424192225
20.30000554560775
20.27678815968569
20.253651739110975
20.23059594094633
20.20762042434677
20.184724850544182
20.161908882832066
20.1391721865504
20.116514429070662
20.093935279780958
20.071434410071298
20.049011493318996
20.02666620487421
20.004398222045598
19.982207224086096
19.960092892178853
19.938054909423244
19.916092960821047
19.89420673326272
19.872395915513803
19.850660198200938
19.828999270938922
19.807412824191857
19.785900552415907
19.7644621518906
19.743097320705754
19.72180575874855
19.70058716769066
19.679441250975557
19.658367713805863
19.637366263130875
19.616436607634153
19.595578457721224
19.57479152550742
19.554075524805768
19.533430171115036
19.51285518160787
19.492350275118998
19.471915172133578
19.451549594775628
19.431253266796563
19.4110259135638
19.390867262049518
19.370777040819444
19.350754980021808
19.330800811376317
19.310914268163284
19.29109508521282
19.271342998894117
19.25165774710483
19.232039069260555
19.212486706284373
19.1930004005965
19.173579896104023
19.154224938190723
19.134935273706965
19.11571065095971
19.09655081970256
19.07745553117148
19.058424540918704
19.03945760379597
19.020554473932357
19.001714906865622
18.98293865953264
18.964225490259917
18.945575158754234
18.926987426093287
18.908462054716463
18.889998808415687
18.87159745232632
18.853257752918154
18.834979477986465
18.816762396643167
18.798606279308
18.78051089769981
18.76247602482793
18.74450143498357
18.726586903731324
18.70873220790073
18.690937125577918
18.673201436097273
18.65552492003324
18.63790735919215
18.62034853660409
18.602848236514927
18.58540624437828
18.568022346847656
18.550696331768602
18.533427988170917
18.51621710626095
18.499063477413937
18.481966894166437
18.46492715020876
18.447944040377546
18.431017360648315
18.414146908128153
18.397332480870734
18.38057387395624
18.363870885020752
18.347223314289895
18.330630963094567
18.314093633863852
18.297611130117957
18.281183256461233
18.264809818575205
18.24849062321174
18.232225478186162
18.21601419237053
18.199856575686873
18.183752439100555
18.16770159461365
18.151703855258372
18.13575903509057
18.119866949183265
18.10402741362026
18.088240245489747
18.072505262878035
18.05682228486326
18.041191131509194
18.02561162385908
18.01008358392952
17.994606834704403
17.979181200128874
17.963806505103403
17.948482575477815
17.93320923804545
17.91798632053729
17.902813651616203
17.88769106087118
17.87261837881165
17.857595436861818
17.842622067355048
17.827698103528295
17.8128233795166
17.79799773042968
17.783220992687177
17.768493002178147
17.75381359535034
17.739182609530634
17.724599882919712
17.71006525458671
17.69557856446397
17.681139653341777
17.666748362863185
17.65240453551884
17.63810801464188
17.62385864440284
17.609656269804628
17.595500736677508
17.581391891674148
17.567329582264687
17.553313656731852
17.5393439641661
17.52542035446081
17.511542678307496
17.49771078719107
17.48392453338514
17.470183769947326
17.456488350714636
17.442838130298863
17.429232964082008
17.41567270821176
17.402157219596987
17.38868635590329
17.375259975548545
17.361877937698527
17.348540102262536
17.335246329889063
17.32199648196149
17.308790420593834
17.295628008626487
17.28250910962203
17.269433587619044
17.256401305627772
17.243412127930657
17.23046591974168
17.21756254698355
17.204701876283643
17.191883774969916
17.1791081110669
17.16637475329166
17.15368357104985
17.14103443443176
17.128427214208394
17.115861781827586
17.103338009410148
17.090855769746035
17.07841493629054
17.06601538316053
17.053656985130687
17.041339617629802
17.029063156737074
17.016827479178453
17.004632462322995
16.992477984179267
16.98036392339173
16.968290159237224
16.95625657162139
16.94426304107521
16.932309448751482
16.920395676421393
16.908521606471076
16.89668712189821
16.884892106308637
16.873136443913
16.861420019523415
16.849742718550168
16.83810442699842
16.82650503146495
16.81494441913493
16.803422477963768
16.791939096537288
16.780494162691546
16.76908756473289
16.757719191546702
16.746388932594254
16.735096677909556
16.723842318096224
16.712625744324413
16.701446848327706
16.690305522400088
16.679201659392906
16.66813515271186
16.657105896314008
16.64611378470481
16.63515871293518
16.62424057659856
16.613359271828017
16.602514695293365
16.59170674419829
16.58093531627753
16.570200309794036
16.55950162353617
16.54883915681495
16.538212809461243
16.52762248182307
16.517068074762857
16.50654948965473
16.49606662838185
16.48561939333374
16.475207687403618
16.464831413985813
16.45449047697311
16.4441847807542
16.43391423021108
16.42367873071651
16.41347818813148
16.403312508802692
16.393181600493563
16.38308537244685
16.373023731423515
16.362996584510995
16.353003839275893
16.34304540376148
16.333121186485275
16.32323109643659
16.313375043074103
16.303552936323477
16.293764686574953
16.284010204680992
16.274289401953936
16.26460219016364
16.254948481535184
16.24532818874655
16.23574122492635
16.226187503651545
16.216666938945192
16.207179445274207
16.197724937547143
16.18830333111198
16.17891454175393
16.169558485693265
16.160235079583156
16.150944240507517
16.141685885978887
16.1324599339363
16.123266302743186
16.114104911185297
16.104975678468616
16.095878524217305
16.086813368471663
16.077780131686094
16.068778734727097
16.059809098871252
16.050871145803242
16.041964797613883
16.03308997679815
16.024246606253232
16.01543460927662
16.00665390956416
15.997904431125153
15.989186097605732
15.98049883299344
15.971842561728337
15.963217208643025
15.95462269896075
15.946058958293538
15.937525912640364
15.929023488385292
15.920551612295654
15.91211021152024
15.903699213587487
15.895318546403713
15.886968138251316
15.878647917787015
15.870357814040108
15.862097756410733
15.853867674668125
15.845667498948918
15.83749715975542
15.829356587953953
15.821245714782883
15.813164471755872
15.805112790299422
15.797090602129668
15.78909783932085
15.78113443430364
15.773200319863511
15.765295429139114
15.757419695620673
15.749573053148362
15.741755435910731
15.733966778443124
15.726207015626093
15.71847608268386
15.710773915182763
15.703100449029705
15.695455620470645
15.687839366089072
15.68025162280451
15.672692327871006
15.665161418875666
15.657658833690157
15.65018450945507
15.642738384200394
15.635320396724767
15.627930486152964
15.62056859193451
15.613234653842218
15.605928611970805
15.598650406735498
15.591399978870614
15.58417726942822
15.576982219776744
15.5698147715996
15.562674866893861
15.555562447968914
15.548477457445111
15.541419838252466
15.534389533629325
15.527386487121072
15.52041064257883
15.513461944158172
15.50654033627312
15.499645759916943
15.492778156856055
15.485937471202876
15.479123647372258
15.472336630080246
15.46557636434276
15.458842795474357
15.45213586908696
15.445455531088632
15.438801727682318
15.432174405364627
15.42557351092461
15.418998991442548
15.412450794288743
15.405928867122334
15.399433157890106
15.3929636148253
15.386520186446463
15.380102821556264
15.373711469240371
15.367346078866461
15.36100660662113
15.35469300878297
15.348405235489029
15.342143237154081
15.335906964469538
15.329696368402342
15.323511400193869
15.317352011358844
15.311218153684273
15.305109779228355
15.299026840319431
15.292969289554932
15.286937079800326
15.28093016418807
15.274948496116602
15.26899202924928
15.263060717513389
15.25715451509913
15.251273376458611
15.245417256304837
15.239586109610746
15.233779886908016
15.227998536173686
15.22224201253772
15.216510271463875
15.210803268672423
15.205120960139176
15.199463302094541
15.193830251022543
15.1882217636599
15.182637796995083
15.17707830826737
15.171543254965929
15.166032594828902
15.160546285842493
15.155084286240054
15.149646554501194
15.14423304935088
15.138843729758566
15.133478554937291
15.12813748434282
15.12282047767278
15.117527495481527
15.112258499073338
15.10701344836148
15.101792303437275
15.096595024631224
15.09142157251218
15.086271907886502
15.081145991797202
15.076043785523142
15.070965250578183
15.065910348710396
15.060879041901224
15.055871292364689
15.0508870625466
15.045926315123744
15.040989013003102
15.036075119321088
15.031184597442733
15.02631741096095
15.021473523695764
15.016652899693534
15.011855503479099
15.00708130003413
15.00233025330504
14.997602327371
14.99289748653599
14.988215695328044
14.983556918498511
14.97892112102131
14.974308268092184
14.969718325128
14.965151257765973
14.960607031863004
14.95608561349493
14.951586968955812
14.947111064757271
14.942657867627739
14.938227344511812
14.933819462569533
14.929434189175726
14.925071491919315
14.920731338602655
14.916413698636164
14.912118547386566
14.907845853545144
14.903595584871857
14.899367709338964
14.895162195130366
14.890979010640935
14.886818124475871
14.882679505450026
14.878563122587273
14.874468945119869
14.8703969424878
14.866347084338157
14.862319340524524
14.858313681106331
14.854330076348253
14.850368496832067
14.84642892043351
14.842511321797105
14.838615671248474
14.83474193931722
14.830890096736308
14.82706011444146
14.82325196357054
14.81946561546298
14.81570104165918
14.811958213899919
14.808237104125764
14.804537684476513
14.80085992729061
14.797203805104576
14.793569290652446
14.789956356865227
14.786364981269129
14.782795147771608
14.779246829819064
14.77572000054027
14.772214633259571
14.768730701496345
14.765268178964446
14.761827039571672
14.758407257419233
14.755008806801216
14.751631662204053
14.748275798306013
14.744941189976679
14.741627812276434
14.73833564045595
14.735064649955692
14.731814817628738
14.728586133359931
14.725378577024253
14.722192124652183
14.71902675246211
14.71588243685986
14.712759154438215
14.709656881976434
14.706575596439789
14.703515274979097
14.700475894930262
14.697457433813817
14.694459869334464
14.691483179380631
14.688527342024035
14.685592335519221
14.682678138303153
14.679784736256968
14.676912116092952
14.674060256135776
14.67122913488209
14.668418731010071
14.665629023379006
14.662859991028848
14.660111613179787
14.657383869231861
14.654676738764511
14.651990201536185
14.64932423748392
14.646678826722953
14.64405394954631
14.641449586424413
14.638865718004693
14.636302329171365
14.63375941894695
14.631236969906633
14.628734962530867
14.626253377476761
14.623792195577682
14.62135139784288
14.618930965457094
14.616530879780171
14.614151122346694
14.61179167486559
14.609452519219793
14.607133637465843
14.604835011833542
14.602556624725601
14.600298458717264
14.598060497001772
14.595842739937973
14.593645179809698
14.591467800161805
14.589310584710084
14.58717351734092
14.585056582110965
14.582959763246839
14.580883045144796
14.578826412370429
14.576789849658358
14.574773341911927
14.5727768742029
14.570800431771175
14.568844000024491
14.566907564538129
14.564991111054635
14.563094625784922
14.561218104734426
14.559361538026229
14.557524910800268
14.555708208363859
14.55391141619141
14.552134519924104
14.550377505369639
14.5486403585019
14.54692306546072
14.545225612551548
14.543547986245219
14.541890173177647
14.54025216014957
14.538633934126283
14.537035482237352
14.535456791776395
14.533897850200788
14.532358645131424
14.530839166240902
14.529339427369365
14.527859424909307
14.526399147198024
14.524958582735627
14.523537720184828
14.5221365483707
14.520755056280464
14.519393233063248
14.51805106802989
14.516728550652719
14.51542567056533
14.514142417562393
14.512878781599444
14.511634752792675
14.510410321418744
14.50920547791458
14.508020212877197
14.506854517063488
14.505708383968727
14.504581822637535
14.503474825463096
14.502387381039098
14.501319478120225
14.500271105621906
14.499242252620096
14.498232908351016
14.497243062210925
14.496272703759455
14.495321839800422
14.494390475860552
14.493478601266993
14.492586205506694
14.491713278226156
14.490859809231207
14.490025788486784
14.489211206116693
14.4884160524034
14.487640324035754
14.48688403978468
14.486147194572482
14.485429780177741
14.484731788536934
14.484053211744243
14.483394042051385
14.482754271867453
14.482133893758729
14.481532900730802
14.480951303207487
14.480389104811923
14.479846298990347
14.479322879345798
14.478818839637949
14.478334173782992
14.47786887585348
14.477422940078208
14.476996360842081
14.476589138456427
14.47620128377171
14.475832792090019
14.475483657852772
14.475153875657359
14.474843459162122
14.474552411308098
14.474280709117584
14.474028329767501
14.473795253306267
14.473581524387686
14.473387191048893
14.473212278424276
14.473056695747227
14.472920288687812
14.472803219738593
14.47270609794258
14.472628520652636
14.472569732888955
14.47252945724779
14.47250840881515
14.472506814768709
14.472524615907997
14.472561698961192
14.472617807108948