22.779177524556427
22.771902609304398
22.764663992574455
22.75746161767524
22.750295428279244
22.74316536842157
22.736071382498736
22.729013415267424
22.72199141184333
22.715005317699926
22.708055078667318
22.701140640931037
22.694261951030903
22.687418955859847
22.680611602662793
22.67383983903549
22.66710361292341
22.66040287262061
22.653737566768648
22.64710764435544
22.640513054714216
22.633953747522405
22.627429672800567
22.620940780911326
22.614487022558325
22.60806834878516
22.601684710974357
22.595336060846314
22.58902235045831
22.582743532203462
22.57649955880974
22.570290383338953
22.56411595918577
22.557976240076727
22.551871180069256
22.545800733550738
22.539764855237525
22.533763500173986
22.52779662373159
22.521864181607945
22.51596612982591
22.510102424732622
22.50427302299865
22.49847788161705
22.492716957902473
22.486990209490312
22.48129759433578
22.475639070713072
22.47001459721449
22.464424132749592
22.458867636544333
22.453345068140237
22.447856387393568
22.442401554474486
22.43698052986624
22.431593274364378
22.4262397490759
22.420919915418505
22.41563373511978
22.41038117021642
22.405162183053477
22.399976736283556
22.394824792866082
22.38970631606655
22.38462126945577
22.37956961708025
22.374551322162073
22.369566346540278
22.364614652314085
22.359696201889072
22.35481095797642
22.34995888359209
22.34513994205612
22.340354096991792
22.335601312324915
22.330881552283078
22.32619478139489
22.32154096448925
22.316920066694646
22.31233205343838
22.30777689044592
22.30325454374012
22.298764979640602
22.294308164762995
22.289884066018278
22.285492650612102
22.281133886044113
22.276807740107284
22.272514180887256
22.268253176761696
22.26402469639963
22.259828708760832
22.255665183095164
22.251534088941977
22.24743539612946
22.243369074774066
22.239335095279866
22.23533342833799
22.231364044926
22.227426916307312
22.223522014030635
22.21964930992937
22.21580877612107
22.212000385006846
22.208224109270848
22.20447992187969
22.200767796081927
22.197087705407498
22.19343962366722
22.189823524952256
22.186239383633588
22.18268717436152
22.179166872065156
22.175678451951942
22.17222188950712
22.168797160493284
22.165404240949865
22.1620431071927
22.158713735813524
22.15541610367954
22.152150187932932
22.148915965990444
22.145713415542915
22.142542514554865
22.139403241264038
22.136295574180988
22.133219492088664
22.130174974041992
22.127161999367466
22.124180547662746
22.121230598796252
22.1183121329068
22.115425130403207
22.112569570409914
22.10974543064621
22.10695268983081
22.104191326953355
22.10146132127401
22.098762652323007
22.096095299900263
22.093459244074953
22.090854465185103
22.08828094383722
22.085738660905847
22.08322759753324
22.080747735128952
22.078299055369452
22.075881540197784
22.073495171823176
22.071139932720705
22.068815805630933
22.066522773559573
22.06426081977713
22.062029927818582
22.059830081483046
22.057661264833467
22.055523462196273
22.05341665816109
22.05134083758043
22.049295985569376
22.04728208750531
22.045299129027597
22.043347096037333
22.041425974697034
22.03953575143039
22.03767641292198
22.035847946117027
22.034050338221128
22.032283576700003
22.030547649279264
22.02884254394416
22.02716824893936
22.0255247527687
22.02391204419499
22.022330112239764
22.020778946183103
22.019258535563395
22.017768870177164
22.016309940078845
22.014881735580612
22.013484247252194
22.01211746592069
22.010781382670377
22.009475988842595
22.008201276035514
22.006957236104025
22.005743861159576
22.004561143570015
22.003409075959453
22.002287651208135
22.001196862452296
22.00013670293602
21.99910716469527
21.998108239366182
21.997139918858377
21.99620219533759
21.99529506122552
21.994418509199665
21.99357253219318
21.992757123394725
21.991972276248323
21.991217984453236
21.990494241963816
21.98980104298941
21.989138381994202
21.988506253697135
21.987904653071787
21.987333575346263
21.986793016003112
21.986282970779225
21.985803435665737
21.985354406907973
21.98493588100535
21.984547854711312
21.98419032503326
21.983863289232502
21.983566744824184
21.983300689577252
21.9830651215144
21.98286003891203
21.982685440300227
21.98254132446272
21.982427690436857
21.982344537513594
21.982291865237485
21.982269673406662
21.982277962072843
21.982316731541324
21.982385982371
21.982485715374366
21.982615931617552
21.982776632420318
21.982967819356123
21.983189494252127
21.983441659189232
21.983724316502148
21.984037468779434
21.984381118863535
21.98475526985088
21.985159925091914
21.985595088191175
21.986060763007398
21.986556953653558
21.987083664496986
21.98764090015945
21.98822866551725
21.988846965701335
21.98949580609739
21.99017519234597
21.990885130320436
21.99162562407517
21.9923966770553
21.99319829367878
21.99403047861831
21.994893236801424
21.99578657341057
21.996710493883214
21.997665003911933
21.99865010944452
21.999665816684097
22.000712132089234
22.001789062374055
22.002896614508373
22.004034795717835
22.005203613484035
22.006403075544668
22.00763318989367
22.00889396478139
22.010185408714722
22.011507530457294
22.012860339029608
22.014243843709245
22.015658054031018
22.01710297978718
22.018578631027598
22.02008501805995
22.02162215144994
22.023190042021493
22.024788700856966
22.02641813929737
22.02807836894259
22.029769401651624
22.031491249542807
22.033243924994043
22.035027440643074
22.0368418093877
22.038687044386062
22.04056315905689
22.042470167079774
22.04440808239543
22.046376919205994
22.048376691975278
22.05040741542909
22.052469104555502
22.054561774605187
22.05668544109168
22.058840119791707
22.06102582674554
22.06324257825724
22.065490390895068
22.06776928149177
22.070079267144926
22.07242036521731
22.074792593337225
22.077195969398858
22.079630511562677
22.082096238255737
22.084593168172123
22.087121318714356
22.089680703471895
22.092271339489447
22.09489324434402
22.097546435879316
22.100230932206067
22.10294675170241
22.105693913014225
22.10847243505551
22.111282337008735
22.11412363832525
22.116996358725626
22.119900518200065
22.1228361370088
22.12580323568247
22.128801835022532
22.131831956101685
22.13489362026428
22.13798684912673
22.14111166457795
22.14426808877979
22.147456144167467
22.150675853450025
22.153927239610777
22.15721032590776
22.16052513587421
22.163871693319013
22.167250022327213
22.170660147260463
22.174102092757526
22.17757588373477
22.18108154538667
22.18461910318631
22.1881885828859
22.191790010517288
22.195423412392497
22.199088815104247
22.202786245526493
22.206515730814974
22.21027729840777
22.214070976025837
22.21789679167359
22.221754773639464
22.2256449504965
22.229567351102904
22.233522004602666
22.23750894042613
22.24152818829061
22.24557977820099
22.249663740450355
22.253780105620578
22.2579289045973
22.262110167406068
22.26632392340088
22.270570202211747
22.274849033757402
22.279160448245886
22.283504476175157
22.2878811483337
22.292290495801147
22.296732549948896
22.30120734244075
22.305714905233543
22.310255270577795
22.31482847101835
22.319434539395058
22.324073508843398
22.32874541279519
22.33345028497926
22.338188159422106
22.342959070448618
22.34776305268275
22.352600141048256
22.357470370769366
22.362373777371534
22.367310396682157
22.372280264831296
22.37728341825244
22.38231989368322
22.387389728166205
22.39249295904963
22.397629623988177
22.402799760943758
22.408003408186286
22.413240604294476
22.41851138815663
22.423815798971468
22.429153876248904
22.4345256598109
22.439931189792286
22.445370506641563
22.4508436511218
22.456350664311444
22.46189158760518
22.467466462714825
22.473075331670174
22.47871823681988
22.484395220832365
22.490106326696697
22.495851597723497
22.50163107754586
22.507444810120262
22.513292840263112
22.51917521193713
22.525091967999245
22.531043151626204
22.537028806318382
22.543048975900714
22.549103704523585
22.55519303666374
22.56131701712523
22.567475691040332
22.573669103870483
22.57989730140724
22.586160329773236
22.59245823542314
22.59879106514463
22.605158866059384
22.61156168562405
22.617999571631263
22.62447257221065
22.63098073582982
22.637524111295427
22.644102747754165
22.650716694693834
22.657366001944357
22.664050719678894
22.670770898414823
22.677526589014914
22.684317842688316
22.69114471099172
22.698007245830425
22.704905499459453
22.711839524484677
22.71880937386394
22.725815100908186
22.73285675928262
22.739934403007858
22.74704808646107
22.754197864377197
22.761383791850083
22.768605924333706
22.775864317643354
22.783159027956845
22.790490111815757
22.797857626126625
22.805261628162228
22.81270217556278
22.820179326337236
22.827693138864543
22.8352436718949
22.842830984551085
22.85045513632779
22.85811618625055
22.865814192461425
22.87354921352933
22.88132130839667
22.88913053638064
22.896976957174502
22.904860630848866
22.912781617853003
22.920739979016183
22.928735775548965
22.936769069044548
22.94483992148013
22.952948395218247
22.961094553008135
22.969278457987127
22.977500173682024
22.9857597640105
22.99405729328251
23.002392826201696
23.010766427866844
23.0191781637733
23.027628099814432
23.03611630228308
23.044642837873045
23.053207773680565
23.061811177205815
23.070453116354404
23.079133659438888
23.08785287518032
23.09661083270978
23.105407601569905
23.114243251716495
23.123117853520032
23.132031477767327
23.140984195663062
23.149976078831443
23.15900719931778
23.16807762959016
23.17718744254107
23.186336711489037
23.195525510180353
23.204753912790686
23.214021993926828
23.223329828628366
23.232677492369433
23.242065061060394
23.251492611049645
23.260960219125316
23.270467962517074
23.28001591889788
23.289604166279414
23.299232779018162
23.308901832494833
23.318611404170955
23.328361571953646
23.338152414197406
23.347984009705893
23.35785643773375
23.367769777988425
23.377724110632
23.387719516283028
23.397756076018425
23.407833871375313
23.417952984352944
23.428113497414557
23.438315493489327
23.448559055974297
23.458844268736296
23.469171216113917
23.479539982919484
23.489950654441028
23.50040331644431
23.510898055174806
23.52143495735976
23.532014110210206
23.542635601423047
23.553299519183117
23.564005952165267
23.574754989536462
23.585546720957915
23.596381236587206
23.607258627080437
23.61817898359438
23.629142397788673
23.64014896182801
23.65119876838434
23.66229191063911
23.67342848228548
23.684608577530607
23.695832291097897
23.707099718229312
23.71841095485293
23.729766098098303
23.741165243367693
23.752608486134562
23.76409592239541
23.775627648672028
23.78720376201387
23.798824360000385
23.810489540743355
23.822199402889307
23.83395404562187
23.845753568664218
23.857598072281462
23.86948765728314
23.881422425025626
23.89340247741466
23.905427916907808
23.917498846516985
23.92961536981101
23.941777590918118
23.95398561452857
23.966239545897192
23.978539490846043
23.990885555766962
24.003277847624286
24.01571647395745
24.02820154288371
24.040733163100818
24.053311443889736
24.06593649511739
24.078608427239434
24.091327351302986
24.10409337894946
24.11690662241738
24.129767194545195
24.142675208774147
24.155630779151153
24.16863402033168
24.1816850475827
24.19478397678558
24.207930924439076
24.221126008222935
24.234369347144188
24.2476610579275
24.26100125767632
24.27439006411824
24.287827595607958
24.301313971130313
24.314849310303334
24.328433733381292
24.342067361257794
24.355750315468875
24.369482718196142
24.383264692269933
24.39709636117245
24.410977849041018
24.424909280671248
24.438890781520307
24.452922477710178
24.467004496030945
24.48113696394412
24.495320009585935
24.50955376177078
24.52383834999449
24.538173904437837
24.552560555969904
24.566998436151575
24.581487677238997
24.596028412187092
24.610620774653093
24.625264899000076
24.6399609203006
24.65470897434022
24.669509197621228
24.684361727366213
24.699266701521825
24.71422425876243
24.729234538493884
24.74429768085728
24.759413826732725
24.77458311774322
24.789805696258416
24.805081706676166
24.82041129404757
24.83579460112157
24.851231771348026
24.866722948933482
24.882268278845046
24.89786790681431
24.913521979341393
24.929230643698855
24.944994047935808
24.9608123408819
24.976685672151486
24.992614192147634
25.008598052066414
25.024637403900925
25.04073240044563
25.056883195300525
25.073089942875388
25.08935279839417
25.105671917899215
25.12204745825572
25.13847957715604
25.154968433124203
25.171514185520266
25.188116994544917
25.2047770212439
25.221494427512617
25.23826937610074
25.255102030616758
25.271992555532737
25.288941116188887
25.305947878798403
25.323013010452133
25.340136679123447
25.357319053672988
25.374560303853603
25.391860600315212
25.409220114609727
25.42663901919608
25.444117487445148
25.461655693651156
25.47925381458231
25.496912026247607
25.514630503771023
25.532409423203323
25.55024896152714
25.568149296662135
25.586110607470214
25.604133073760735
25.622216876295838
25.640362196795653
25.658569217943786
25.6768381233926
25.695169097768723
25.71356232667845
25.73201799671333
25.750536295455664
25.76911741148413
25.7877615343794
25.806468854729825
25.825239564137185
25.844073855222376
25.86297192163132
25.88193395804071
25.900960160163997
25.920050724757246
25.93920584962517
25.958425733627145
25.977710576683265
25.99706057978048
26.01647594497873
26.03595687541722
26.055503575320564
26.075116250005205
26.09479510588569
26.114540350481096
26.13435219242146
26.1542308414543
26.17417650845115
26.194189405414104
26.21426974548257
26.234417742944068
26.25463361276512
26.274917569731002
26.29526982957604
26.31569060919317
26.336180126640798
26.356738601149647
26.37736625312973
26.398063304177292
26.41882997708187
26.439666495833315
26.460573085629004
26.481549972881027
26.50259738522338
26.523715551519317
26.5449047018687
26.56616506761539
26.587496881354795
26.608900376941303
26.630375789495933
26.65192335541396
26.673543312372647
26.695235899338982
26.717001356577494
26.73883992565819
26.76075184946444
26.782737372201055
26.804796739402292
26.826930197940012
26.849137996031875
26.871420383249646
26.893777610527437
26.916209930170137
26.93871759586189
26.96130086267457
26.983959987076428
27.00669522694068
27.029506841554255
27.052395091626607
27.075360239298572
27.098402548151267
27.121522283710032
27.144719714554007
27.167995106693656
27.19134872696902
27.21478084368824
27.238291726636774
27.261881647086643
27.285550877805743
27.309299693067214
27.333128368658898
27.35703718189293
27.381026411615327
27.40509633821566
27.429247243636834
27.45347941138495
27.477793126539222
27.502188675761985
27.526666347308748
27.5512264310384
27.575869218423428
27.600595002560276
27.625404078179724
27.65029674165738
27.67527329102429
27.700334025977565
27.72547924789118
27.750709259826753
27.77602436654449
27.80142487451422
27.82691109192648
27.852483328703702
27.87814189651147
27.903887108769958
27.929719280665317
27.955638729161343
27.981645773010985
28.007740732768223
28.03392393079983
28.06019569129739
28.08655634028923
28.113006205652667
28.139545627473883
28.166174964056424
28.192894546069972
28.219704704266242
28.246605771272886
28.27359808160582
28.300681971681733
28.327857779830573
28.355125846308297
28.38248651330961
28.40994012498084
28.43748702743296
28.465127568754625
28.49286209902542
28.520690970329145
28.548614536767293
28.576633154472475
28.60474718162217
28.632956978452437
28.661262907271805
28.68966533623739
28.71816468468938
28.746761337687655
28.775455665192588
28.804248039302298
28.833138834267075
28.86212842650413
28.89121719461226
28.920405519386783
28.94969378383453
28.979082373188962
29.008571674925463
29.038162078776708
29.06785397674822
29.097647763133953
29.127543834532162
29.15754258986126
29.18764443037593
29.217849759683247
29.248158983759115
29.278572510964626
29.309090784752335
29.33971426104736
29.370443355010487
29.40127848404807
29.432220068030862
29.463268529311343
29.49442429274108
29.525687785688383
29.55705943805594
29.588539682298702
29.620128953441984
29.651827689099566
29.683636329492135
29.715555317465657
29.747585098510164
29.779726120778527
29.81197883510548
29.84434369502674
29.876821156798336
29.909411679416163
29.94211573520568
29.974933843717768
30.00786647985115
30.04091411336208
30.07407721684337
30.10735626574496
30.1407517383945
30.17426411601832
30.207893882762438
30.2416415257138
30.27550753492177
30.30949240341963
30.34359662724652
30.377820705469375
30.41216514020521
30.446630436643392
30.48121710306838
30.51592565088247
30.550756594628833
30.585710452014762
30.620787744584735
30.655989035522214
30.691314875210242
30.726765794345205
30.76234232690777
30.798045010187536
30.8338743848077
30.869830994750057
30.905915387380198
30.942128113472908
30.97846972723786
31.014940786345484
31.051541851953168
31.08827348873149
31.12513626489099
31.162130752208952
31.19925752605653
31.236517165426115
31.273910252958952
31.31143737497301
31.349099121491104
31.386896099947542
31.424828940386515
31.462898244350857
31.50110461569671
31.5394486621173
31.577930995172494
31.616552230318693
31.655312986938977
31.694213888373532
31.733255561950397
31.77243863901643
31.811763754968645
31.851231549285774
31.890842665560275
31.93059775153035
31.970497487736104
32.01054256425823
32.05073363859775
32.09107137239213
32.13155643155982
32.17218948633396
32.212971211296384
32.25390228541206
32.29498339206361
32.33621521908651
32.37759845880434
32.419133808064544
32.460821968274395
32.502663645437465
32.544659550995746
32.586810457941155
32.62911712240281
32.67158027002256
32.714200631234725
32.75697894130478
32.7999159403684
32.84301237347088
32.88626899060692
32.929686546760905
32.97326580194742
33.017007524229236
33.06091249709789
33.10498150268191
33.14921532755052
33.19361476357673
33.23818060798122
33.28291366337668
33.32781473781256
33.37288464482033
33.41812420345915
33.46353423761913
33.50911553486856
33.55486890643212
33.60079519406427
33.646895245284355
33.693169913425024
33.739620057681314
33.78624654316024
33.833050240930845
33.88003202807475
33.92719278773729
33.97453338136362
34.022054621966625
34.06975742832167
34.11764273392303
34.16571147888107
34.21396460998063
34.26240308073968
34.3110278514687
34.35983988933081
34.408840168402236
34.45802965816939
34.50740885017956
34.55697864227075
34.606740269429444
34.65669497656177
34.70684401859411
34.75718806348421
34.80772756092799
34.85846377456202
34.909397983009434
34.96053147524353
35.01186523679623
35.06339956424059
35.11513567734955
35.16707488059486
35.219218489033125
35.27156771402304
35.32412293534404
35.37688523949203
35.42985592753331
35.483036310997214
35.53642769622384
35.590030805054894
35.643846720514276
35.697876743442535
35.7521217057848
35.806582992063476
35.86126170840313
35.91615889060309
35.971275702543934
36.02661277041964