14.472617807108948
14.472561698961192
14.472524615907997
14.472506814768709
14.47250840881515
14.47252945724779
14.472569732888955
14.472628520652636
14.47270609794258
14.472803219738593
14.472920288687812
14.473056695747227
14.473212278424276
14.473387191048893
14.473581524387686
14.473795253306267
14.474028329767501
14.474280709117584
14.474552411308098
14.474843459162122
14.475153875657359
14.475483657852772
14.475832792090019
14.47620128377171
14.476589138456427
14.476996360842081
14.477422940078208
14.47786887585348
14.478334173782992
14.478818839637949
14.479322879345798
14.479846298990347
14.480389104811923
14.480951303207487
14.481532900730802
14.482133893758729
14.482754271867453
14.483394042051385
14.484053211744243
14.484731788536934
14.485429780177741
14.486147194572482
14.48688403978468
14.487640324035754
14.4884160524034
14.489211206116693
14.490025788486784
14.490859809231207
14.491713278226156
14.492586205506694
14.493478601266993
14.494390475860552
14.495321839800422
14.496272703759455
14.497243062210925
14.498232908351016
14.499242252620096
14.500271105621906
14.501319478120225
14.502387381039098
14.503474825463094
14.504581822637535
14.505708383968727
14.506854517063488
14.508020212877197
14.50920547791458
14.510410321418744
14.511634752792675
14.512878781599444
14.514142417562393
14.51542567056533
14.516728550652719
14.51805106802989
14.519393233063248
14.520755056280464
14.5221365483707
14.523537720184828
14.524958582735627
14.526399147198024
14.527859424909307
14.529339427369365
14.530839166240906
14.532358645131424
14.533897850200788
14.535456791776395
14.537035482237355
14.538633934126283
14.54025216014957
14.541890173177647
14.543547986245219
14.545225612551548
14.54692306546072
14.5486403585019
14.550377505369639
14.552134519924104
14.55391141619141
14.555708208363859
14.557524910800268
14.559361538026229
14.561218104734426
14.563094625784922
14.564991111054635
14.566907564538129
14.568844000024491
14.570800431771175
14.5727768742029
14.574773341911927
14.576789849658358
14.578826412370429
14.580883045144796
14.582959763246839
14.585056582110965
14.58717351734092
14.589310584710084
14.591467800161805
14.593645179809698
14.595842739937973
14.598060497001772
14.600298458717262
14.602556624725601
14.604835011833542
14.607133637465843
14.609452519219793
14.61179167486559
14.61415112234669
14.616530879780171
14.618930965457094
14.62135139784288
14.623792195577682
14.626253377476758
14.628734962530867
14.631236969906633
14.63375941894695
14.636302329171365
14.638865718004693
14.641449586424413
14.64405394954631
14.646678826722953
14.64932423748392
14.651990201536185
14.654676738764511
14.657383869231861
14.660111613179787
14.662859991028848
14.66562902337901
14.668418731010071
14.67122913488209
14.674060256135776
14.676912116092952
14.679784736256968
14.682678138303153
14.685592335519221
14.688527342024035
14.691483179380631
14.694459869334464
14.697457433813817
14.700475894930262
14.703515274979097
14.706575596439786
14.709656881976434
14.712759154438215
14.71588243685986
14.71902675246211
14.722192124652183
14.725378577024253
14.728586133359931
14.731814817628738
14.735064649955692
14.73833564045595
14.741627812276434
14.744941189976679
14.748275798306013
14.751631662204053
14.755008806801216
14.758407257419233
14.761827039571672
14.765268178964446
14.768730701496345
14.772214633259571
14.77572000054027
14.779246829819064
14.782795147771608
14.786364981269129
14.789956356865227
14.793569290652446
14.797203805104573
14.800859927290611
14.804537684476513
14.808237104125764
14.811958213899917
14.81570104165918
14.81946561546298
14.82325196357054
14.82706011444146
14.830890096736312
14.83474193931722
14.838615671248474
14.842511321797105
14.84642892043351
14.850368496832067
14.854330076348253
14.858313681106331
14.862319340524524
14.866347084338157
14.8703969424878
14.874468945119865
14.878563122587273
14.882679505450023
14.886818124475871
14.890979010640935
14.895162195130366
14.899367709338964
14.903595584871857
14.907845853545147
14.912118547386566
14.916413698636164
14.920731338602655
14.925071491919315
14.929434189175726
14.933819462569533
14.938227344511812
14.942657867627743
14.947111064757271
14.951586968955812
14.95608561349493
14.960607031863004
14.965151257765976
14.969718325128
14.974308268092187
14.97892112102131
14.983556918498511
14.988215695328044
14.99289748653599
14.997602327371002
15.00233025330504
15.00708130003413
15.011855503479099
15.016652899693534
15.021473523695764
15.026317410960953
15.031184597442733
15.036075119321085
15.040989013003106
15.045926315123744
15.0508870625466
15.055871292364689
15.060879041901224
15.065910348710396
15.070965250578183
15.076043785523138
15.081145991797202
15.086271907886502
15.09142157251218
15.096595024631224
15.101792303437271
15.107013448361483
15.112258499073338
15.117527495481527
15.12282047767278
15.128137484342819
15.133478554937291
15.138843729758566
15.14423304935088
15.149646554501194
15.155084286240054
15.160546285842493
15.166032594828902
15.171543254965925
15.17707830826737
15.182637796995083
15.1882217636599
15.193830251022543
15.199463302094541
15.20512096013918
15.210803268672423
15.216510271463875
15.22224201253772
15.227998536173686
15.233779886908016
15.239586109610746
15.245417256304837
15.251273376458608
15.25715451509913
15.263060717513385
15.26899202924928
15.274948496116599
15.280930164188074
15.286937079800326
15.292969289554932
15.299026840319431
15.305109779228351
15.311218153684269
15.317352011358844
15.323511400193869
15.32969636840234
15.335906964469538
15.342143237154078
15.348405235489029
15.35469300878297
15.36100660662113
15.367346078866461
15.373711469240371
15.380102821556264
15.386520186446463
15.3929636148253
15.399433157890106
15.405928867122334
15.412450794288743
15.418998991442548
15.42557351092461
15.432174405364627
15.438801727682318
15.445455531088632
15.45213586908696
15.458842795474355
15.465576364342764
15.472336630080246
15.479123647372258
15.485937471202876
15.492778156856058
15.499645759916943
15.50654033627312
15.513461944158172
15.52041064257883
15.527386487121072
15.534389533629325
15.541419838252466
15.548477457445111
15.555562447968912
15.562674866893865
15.569814771599596
15.576982219776744
15.58417726942822
15.591399978870617
15.598650406735498
15.605928611970809
15.613234653842218
15.62056859193451
15.627930486152968
15.635320396724767
15.642738384200394
15.65018450945507
15.657658833690157
15.665161418875666
15.672692327871006
15.68025162280451
15.68783936608907
15.695455620470645
15.703100449029701
15.710773915182763
15.71847608268386
15.726207015626096
15.733966778443124
15.741755435910731
15.749573053148362
15.757419695620673
15.765295429139114
15.773200319863511
15.78113443430364
15.789097839320853
15.797090602129671
15.805112790299422
15.813164471755872
15.821245714782883
15.829356587953956
15.837497159755424
15.845667498948918
15.853867674668129
15.862097756410737
15.870357814040108
15.878647917787015
15.886968138251316
15.895318546403717
15.90369921358749
15.91211021152024
15.920551612295657
15.929023488385296
15.937525912640364
15.946058958293541
15.95462269896075
15.963217208643028
15.97184256172834
15.98049883299344
15.989186097605732
15.997904431125153
16.00665390956416
16.01543460927662
16.024246606253232
16.03308997679815
16.041964797613886
16.050871145803246
16.059809098871252
16.068778734727097
16.077780131686094
16.086813368471663
16.09587852421731
16.10497567846862
16.114104911185297
16.123266302743186
16.1324599339363
16.14168588597889
16.15094424050752
16.160235079583156
16.169558485693265
16.17891454175393
16.188303331111978
16.197724937547147
16.207179445274207
16.216666938945192
16.22618750365155
16.23574122492635
16.24532818874655
16.254948481535184
16.26460219016364
16.274289401953936
16.284010204680992
16.29376468657495
16.303552936323477
16.313375043074103
16.32323109643659
16.333121186485275
16.34304540376148
16.353003839275893
16.362996584510995
16.373023731423515
16.38308537244685
16.393181600493566
16.403312508802692
16.41347818813148
16.423678730716507
16.433914230211077
16.4441847807542
16.454490476973113
16.464831413985813
16.475207687403618
16.485619393333735
16.49606662838185
16.506549489654727
16.517068074762857
16.52762248182307
16.538212809461246
16.54883915681495
16.559501623536175
16.570200309794036
16.580935316277532
16.59170674419829
16.602514695293365
16.61335927182802
16.624240576598563
16.635158712935183
16.646113784704813
16.657105896314008
16.668135152711862
16.679201659392906
16.69030552240009
16.701446848327706
16.712625744324413
16.723842318096224
16.73509667790956
16.746388932594257
16.757719191546702
16.76908756473289
16.78049416269155
16.791939096537288
16.80342247796377
16.814944419134935
16.82650503146495
16.83810442699842
16.849742718550175
16.861420019523422
16.873136443913
16.884892106308637
16.896687121898214
16.908521606471076
16.920395676421396
16.932309448751486
16.94426304107521
16.956256571621395
16.968290159237227
16.98036392339173
16.99247798417927
17.004632462323
17.016827479178453
17.029063156737077
17.041339617629806
17.05365698513069
17.066015383160533
17.078414936290542
17.09085576974604
17.103338009410155
17.11586178182759
17.128427214208397
17.141034434431763
17.15368357104985
17.166374753291663
17.179108111066906
17.19188377496992
17.204701876283643
17.217562546983554
17.230465919741683
17.243412127930668
17.256401305627776
17.269433587619048
17.282509109622033
17.29562800862649
17.30879042059384
17.321996481961495
17.335246329889063
17.34854010226254
17.36187793769853
17.375259975548545
17.388686355903292
17.40215721959699
17.415672708211762
17.42923296408201
17.442838130298867
17.456488350714643
17.470183769947333
17.483924533385142
17.497710787191075
17.5115426783075
17.525420354460817
17.539343964166108
17.553313656731856
17.567329582264694
17.58139189167415
17.595500736677515
17.609656269804635
17.623858644402848
17.638108014641883
17.652404535518848
17.666748362863196
17.681139653341788
17.695578564463975
17.710065254586716
17.72459988291972
17.739182609530644
17.753813595350348
17.768493002178158
17.783220992687184
17.797997730429692
17.812823379516605
17.827698103528306
17.842622067355055
17.857595436861832
17.872618378811666
17.88769106087119
17.902813651616214
17.9179863205373
17.933209238045457
17.948482575477826
17.96380650510341
17.979181200128885
17.99460683470441
18.010083583929532
18.025611623859096
18.041191131509205
18.056822284863266
18.072505262878046
18.088240245489757
18.104027413620265
18.119866949183276
18.135759035090576
18.151703855258383
18.16770159461366
18.183752439100562
18.199856575686884
18.216014192370544
18.232225478186177
18.248490623211747
18.264809818575216
18.281183256461244
18.297611130117975
18.314093633863866
18.330630963094578
18.347223314289902
18.363870885020766
18.38057387395625
18.397332480870748
18.414146908128167
18.431017360648326
18.447944040377553
18.464927150208766
18.481966894166444
18.499063477413955
18.51621710626096
18.533427988170928
18.55069633176861
18.56802234684767
18.585406244378294
18.602848236514937
18.620348536604105
18.637907359192162
18.655524920033255
18.67320143609729
18.690937125577932
18.708732207900745
18.72658690373134
18.744501434983587
18.76247602482794
18.780510897699823
18.79860627930801
18.816762396643185
18.834979477986483
18.853257752918164
18.871597452326338
18.8899988084157
18.908462054716477
18.926987426093305
18.94557515875425
18.96422549025993
18.982938659532653
19.001714906865637
19.020554473932375
19.039457603795988
19.058424540918722
19.0774555311715
19.096550819702575
19.11571065095972
19.134935273706983
19.15422493819074
19.17357989610404
19.193000400596514
19.212486706284384
19.232039069260573
19.25165774710485
19.271342998894134
19.291095085212834
19.310914268163298
19.330800811376335
19.350754980021833
19.37077704081947
19.390867262049532
19.411025913563815
19.43125326679658
19.45154959477565
19.4719151721336
19.492350275119016
19.512855181607886
19.53343017111506
19.554075524805786
19.574791525507443
19.595578457721246
19.616436607634167
19.637366263130897
19.658367713805884
19.67944125097557
19.700587167690685
19.721805758748566
19.74309732070578
19.76446215189062
19.785900552415928
19.807412824191886
19.828999270938947
19.850660198200956
19.872395915513824
19.89420673326274
19.91609296082107
19.938054909423265
19.96009289217887
19.98220722408612
20.004398222045626
20.02666620487424
20.04901149331902
20.07143441007132
20.093935279780975
20.116514429070687
20.13917218655043
20.16190888283209
20.184724850544207
20.2076204243468
20.23059594094636
20.253651739111003
20.27678815968572
20.300005545607778
20.323304241922283
20.34668459579781
20.370146956542307
20.393691675618964
20.41731910666243
20.441029605495
20.46482353014304
20.488701240853562
20.512663100110924
20.536709472653673
20.56084072549161
20.58505722792289
20.60935935155143
20.63374747030436
20.65822196044966
20.68278320061402
20.707431571800786
20.73216745742489
20.756991244849157
20.78190332229967
20.806904078993316
20.83199390660186
20.857173199270697
20.882442353637977
20.90780176885369
20.933251846599124
20.958792991106353
20.984425609178007
21.010150110207167
21.03596690619748
21.06187641178347
21.087879044251018
21.113975223558043
21.140165372355355
21.166449916007785
21.192829282615403
21.219303903035033
21.245874210901942
21.2725406426517
21.29930363754228
21.32616363767639
21.353121088024004
21.380176436445073
21.407330133712506
21.434582633535324
21.461934392582112
21.48938587050459
21.51693752996153
21.544589836642814
21.572343259293728
21.600198269739614
21.628155342910556
21.656214956866513
21.684377592822578
21.712643735174456
21.741013871562583
21.769488493431137
21.798068093757987
21.8267531681399
21.855544215466928
21.884441737949288
21.913446241144538
21.942558233984805
21.971778228804567
22.001106741368492
22.03054429089965
22.06009140010806
22.08974859521934
22.119516406003843
22.149395365805972
22.179386011573783
22.20948888388897
22.23970452699705
22.270033488837935
22.30047632107677
22.33103357913503
22.361705822222113
22.392493613366984
22.423397519450408
22.454418111237338
22.485555963409652
22.516811654599334
22.54818576742183
22.57967888850991
22.611291608547752
22.643024522305407
22.674878228673705
22.706853330699353
22.73895043562058
22.771170154903025
22.803513104276004
22.83597990376924
22.86857117774989
22.901287556067135
22.934129684990587
22.967098203818004
23.000193751919856
23.033416973163494
23.066768515952248
23.10024903326487
23.133859182695286
23.167599626492994
23.201471031603592
23.23547406970998
23.269609417273912
23.30387775557798
23.33827977076796
23.372816153895855
23.40748760096308
23.442294812964377
23.47723849593204
23.512319360980623
23.54753812435227
23.582895507462297
23.618392236945503
23.654029044702824
23.68980666794851
23.72572584925791
23.76178733661562
23.797991883464366
23.83434024875413
23.87083319699208
23.907471498292946
23.94425592842984
23.981187268885897
24.018266306906128
24.055493835550145
24.09287065374537
24.130397566340758
24.16807538416117
24.20590492406242
24.243887008986743
24.28202246801919
24.32031213644423
24.358756855803367
24.397357473953235
24.436114845124266
24.475029829980272
24.51410329567834
24.553336115929707
24.592729171061205
24.632283348077376
24.671999540723345
24.711878649548332
24.751921581969956
24.79212925233929
24.83250258200657
24.873042499387736
24.913749940031646
24.954625846688153
24.995671169376966
25.036886865457223
25.07827389969788
25.119833244349042
25.161565879213892
25.20347279172176
25.245554977001685
25.287813437957116
25.330249185341398
25.37286323783411
25.41565662211824
25.458630372958545
25.501785533280373
25.545123154249893
25.588644295354918
25.632350024486843
25.67624141802366
25.720319560913627
25.764585546760248
25.80904047623705
25.853685451241738
25.898521586804847
25.943550007687847
25.988771847687083
26.034188249724192
26.07980036593717
26.12560935777309
26.171616396081447
26.217822661208945
26.264229343095437
26.310837641370696
26.357648765452826
26.404663934647502
26.45188437824867
26.499311335640346
26.546946056399644
26.594789800401262
26.642843837922964
26.691109449752666
26.739587927296668
26.788280572689192
26.83718869890342
26.886313629863903
26.93565670056024
26.985219257162314
27.035002657136868
27.08500826936563
27.135237474264986
27.185691663906876
27.236372242141602
27.287280624721873
27.338418239428577
27.38978652619829
27.44138693725197
27.493220937225836
27.545290003303474
27.597595625349967
27.650139306047556
27.70292256103303
27.755946919037108
27.80921392202539
27.86272512534119
27.916482097850388
27.97048642208792
28.024739694406307
28.0792435251263
28.13399953868905
28.18900937381077
28.244274683639066
28.29979713591159
28.355578413116646
28.411620212655862
28.467924247009304
28.52449224390241
28.581325946475495
28.638427113455318
28.695797519906773
28.753438957413277
28.811353228952502
28.869542153235557
28.928007565386512
28.986751317127155
29.045775276964488
29.105081330380532
29.164671380024746
29.224547345909297
29.284711165606637
29.345164794450177
29.405910205737417
29.46694939093595
29.52828435989251
29.58991714104454
29.6518497816351
29.71408434793046
29.776622925440783
29.83946761914409
29.902620553713106
29.966083873745355
30.029859743996667
30.093950349617693
30.158357896393998
30.223084610989474
30.288132741193085
30.353504556169405
30.419202346712368
30.4852284255031
30.551585127370906
30.618274809558454
30.68529985199063
30.752662657547123
30.82036565233925
30.888411285990554
30.956802031921484
31.02554038763849
31.094628875027045
31.164070040648998
31.23386645604458
31.30402071803839
31.374535449050367
31.445413297411044
31.516656937681503
31.588269070978356
31.6602524253031
31.732609755877025
31.805343845480426
31.8784575047974
31.951953572765795
32.025834916932126
32.10010443381235
32.17476504925752
32.249819718825485
32.32527142815812
32.40112319336422
32.47737806022436
32.55403909907364
32.63110941455215
32.70859214398721
32.78649045709103
32.86480755637872
32.94354667759307
33.022711090135516
33.10230409750425
33.18232903773905
33.262789283872976
33.34368824439121
33.42502936369741
33.50681612258695
33.589052038728276
33.67174066715126
33.754885600743854
33.83849047075658
33.922558947314776
34.00709473993973
34.09210159807744
34.17758331163649
34.263543711534524
34.34998667025344
34.43691610240382
34.52433596529837
34.61225025953497
34.70066302958927
34.78957836441694
34.879000398065955
34.968933310298944
35.05938132722591
35.15034872194781
35.24183981521014
35.33385897606822
35.42641062256336
35.519499222410154
35.6131292936961
35.70730540559214
35.80203217907596
35.89731428766751
35.99315645817684
36.08956347146494