5.62347891307777
5.621857392084992
5.620242850093042
5.618635353108157
5.617034903579041
5.615441492430515
5.613855111963944
5.612275753187476
5.610703401970849
5.609138055873289
5.607579704049766
5.606028333409673
5.604483930924987
5.602946484049529
5.601415992046852
5.599892447183344
5.5983758359990095
5.59686614509686
5.595363361142654
5.593867480452353
5.592378500576066
5.590896408162088
5.58942118991005
5.587952832581723
5.58649132849411
5.585036679290231
5.583588872646308
5.582147895478877
5.580713734765757
5.57928637912479
5.57786582741035
5.576452072077757
5.575045103875512
5.573644913605258
5.572251492121628
5.570864830332081
5.569484919196745
5.568111749728257
5.566745312991614
5.565385600104008
5.564032602946238
5.562686313794511
5.561346724372442
5.560013826454219
5.558687611864635
5.557368072478954
5.556055200222775
5.554748987071896
5.55344942505218
5.552156506239417
5.550870222585683
5.5495905651956425
5.5483175261226885
5.54705109765547
5.545791272131872
5.5445380419388846
5.543291399512472
5.542051337337455
5.540817847947378
5.539590923924393
5.538370557899129
5.537156742550577
5.535949470605964
5.534748734840636
5.533554528077936
5.532366843189089
5.53118567309308
5.530011010756542
5.528842849193641
5.527681181465955
5.5265260006823675
5.525377299446761
5.524235067772737
5.523099298436963
5.521969984781814
5.520847120196284
5.519730698115882
5.518620712022519
5.517517155444409
5.5164200219559625
5.515329305177679
5.514244998776048
5.513167096463445
5.5120955919980315
5.511030479183652
5.509971751869735
5.508919403951196
5.507873429368337
5.506833822106754
5.50580057619723
5.504773684837225
5.503753138777819
5.502738931767768
5.501731057920218
5.500729511393127
5.499734286389164
5.498745377155618
5.49776277798431
5.496786483211492
5.495816487217769
5.494852784427998
5.493895369311205
5.492944236380498
5.491999380192972
5.491060795349632
5.490128476495301
5.489202418318537
5.488282615551548
5.487369062970109
5.486461754096948
5.485560680459365
5.484665836738621
5.483777217822442
5.482894818641729
5.482018634170481
5.48114865942572
5.480284889467405
5.479427319398355
5.478575944364179
5.477730759553192
5.476891760196341
5.47605894156713
5.475232298981551
5.474411827798
5.4735975234172125
5.472789381282192
5.471987396878131
5.471191565732349
5.47040188162429
5.469618337036863
5.468840927490097
5.468069648599221
5.467304496021272
5.466545465455029
5.465792552640936
5.465045753361047
5.464305063438952
5.463570478739716
5.462841995169812
5.462119608677062
5.461403315250568
5.460693110920653
5.4599889917588
5.459290953877587
5.458598993430636
5.4579131066125415
5.45723328965882
5.456559536653494
5.4558918413646555
5.455230200059465
5.454574609048299
5.453925064682193
5.453281563352787
5.452644101492264
5.452012675573301
5.451387282109011
5.450767917652887
5.450154578798755
5.449547262180718
5.448945964473101
5.448350682390408
5.447761412687263
5.447178152158369
5.446600897638448
5.446029646002205
5.445464394144788
5.444905135640634
5.444351864845611
5.443804578567269
5.4432632736530016
5.442727946990003
5.442198595505218
5.441675216165289
5.441157805976518
5.4406463619848076
5.44014088127563
5.439641360973965
5.439147798244272
5.43866019029043
5.438178534355708
5.437702827722712
5.437233067713349
5.436769251688781
5.436311377049391
5.4358594412683265
5.435413442894935
5.434973379739093
5.434539249057536
5.434111048146229
5.433688774340321
5.433272425014107
5.432861997580984
5.4324574894934035
5.432058898242841
5.431666221359747
5.431279456413514
5.430898601012431
5.430523652803651
5.43015460947315
5.429791468745691
5.429434228384786
5.429082886192667
5.42873744001024
5.428397887863444
5.428064229858919
5.42773646477286
5.427414590713621
5.4270986058280615
5.426788508301511
5.426484296357745
5.426185968258956
5.425893522305727
5.425606956837004
5.42532627023007
5.4250514609005265
5.424782527302258
5.424519467927419
5.424262281306398
5.424010966007813
5.4237655206384705
5.423525943843358
5.423292234305616
5.423064390612381
5.42284241044999
5.422626292446587
5.422416035515713
5.42221163860893
5.422013100715802
5.4218204208638845
5.42163359811871
5.42145263158377
5.421277520400507
5.4211082637483035
5.420944860844465
5.42078731094421
5.420635613340665
5.4204897673648516
5.420349772385673
5.420215627809911
5.420087333082218
5.419964887685108
5.4198482908214
5.419737540362557
5.419632635522777
5.419533575777123
5.419440360638486
5.419352989657572
5.419271462422902
5.419195778560801
5.419125937735398
5.419061939648613
5.419003784040165
5.418951470687557
5.418904999406079
5.418864370048809
5.418829582506602
5.418800636708096
5.418777532619713
5.418760270245654
5.418748849627905
5.41874327059334
5.418743532328055
5.418749634750789
5.418761577884395
5.418779361789501
5.418802986564507
5.418832452345589
5.4188677593067
5.418908907659575
5.418955897653733
5.419008729576479
5.41906740375291
5.419131920545925
5.4192022803562185
5.419278483622302
5.419360530820499
5.41944842246496
5.419542159107666
5.419641741338439
5.419747169759591
5.419858444905138
5.419975567336422
5.420098537653653
5.420227356494903
5.420362024536118
5.42050254249113
5.4206489111116625
5.420801131187346
5.420959203545729
5.421123129052287
5.421292908610442
5.421468543161572
5.421650033685025
5.421837381198138
5.4220305867562475
5.42222965145271
5.422434576418916
5.422645362824309
5.422862012069559
5.42308452560432
5.423312904559702
5.423547150101304
5.423787263432824
5.424033245796072
5.4242850984709925
5.424542822775685
5.424806420066415
5.425075891737649
5.425351239222056
5.42563246399055
5.425919567552295
5.4262125514547375
5.426511417283628
5.4268161666630395
5.427126801255403
5.427443322761522
5.427765732920604
5.428094033510288
5.428428226346667
5.428768313284321
5.429114296216339
5.429466177074357
5.429823957828579
5.430187640487811
5.430557227099496
5.430932719749736
5.431314120563333
5.431701431703817
5.432094655373484
5.432493793813424
5.432898849303561
5.433309824162683
5.4337267207484885
5.434149541457611
5.434578288725661
5.435012965140307
5.435453582487972
5.435900145617127
5.436352652019832
5.436811099224037
5.437275484793498
5.4377458063277215
5.438222069600504
5.438704286964644
5.439192460839347
5.439686593587554
5.440186687611352
5.440692745352009
5.44120476929002
5.441722761945132
5.442246725876385
5.442776663682149
5.443312578000163
5.44385447150757
5.444402347236409
5.444956210277743
5.4455160642812706
5.446081912547007
5.4466537584150165
5.447231605265459
5.447815456518645
5.448405315635093
5.44900118611558
5.449603071501198
5.4502109753734125
5.450824901354118
5.451444853104229
5.45207083305797
5.452702843951068
5.453340889712654
5.453984974312689
5.454635101762035
5.45529127611251
5.455953501456963
5.456621781929339
5.457296121704738
5.457976524999498
5.458662996071245
5.459355539218983
5.46005415858066
5.460758857639825
5.461469640562959
5.462186511641356
5.462909475207829
5.463638535636787
5.4643736973443024
5.465114964788182
5.465862342468037
5.466615834925361
5.467375446743602
5.46814118254823
5.4689130469689635
5.469691043060585
5.470475174722285
5.471265446792824
5.472061864153391
5.472864431727684
5.4736731544819905
5.474488037425262
5.475309085609206
5.47613630412836
5.476969698120183
5.477809272765128
5.47865503328674
5.479506984951732
5.4803651330700776
5.4812294829950945
5.482100039533588
5.482976804879594
5.483859783987673
5.484748982344395
5.485644405480014
5.486546058968559
5.487453948427926
5.4883680795199705
5.489288457950602
5.490215089469875
5.491147979872086
5.49208713499587
5.493032560724298
5.493984262984967
5.494942247750111
5.4959065210366855
5.496877088070704
5.497853953531218
5.498837123382849
5.499826603651516
5.500822400408094
5.501824519768515
5.502832967893874
5.503847750990517
5.504868875310162
5.505896347149983
5.50693017285273
5.507970358806826
5.509016911446473
5.510069837251759
5.511129142748769
5.512194834394626
5.513266915826111
5.514345392430724
5.515430270966792
5.516521558239205
5.517619261099533
5.518723386446135
5.5198339412242845
5.520950932426272
5.522074367091538
5.52320425230678
5.524340595206074
5.525483402970997
5.526632682830747
5.5277884420622625
5.528950687990348
5.5301194279517745
5.531294669102128
5.532476418643687
5.533664683838006
5.534859471994678
5.536060790471466
5.537268646674422
5.538483048058004
5.539704002125215
5.540931516427718
5.542165598565966
5.54340625618933
5.544653496996224
5.545907328734244
5.547167759200287
5.548434796240688
5.549708445547875
5.550988712340061
5.5522756047991315
5.553569131168862
5.554869299743451
5.556176118867657
5.557489596936951
5.5588097423976555
5.560136563747088
5.561470069533713
5.562810268357281
5.564157168868988
5.565510779771614
5.566871109819681
5.568238167819598
5.569611962464866
5.570992499744468
5.572379787366915
5.573773834109482
5.57517464880157
5.57658224032487
5.577996617613503
5.579417789654181
5.580845765486363
5.582280554202407
5.583722164947728
5.585170606920956
5.586625889374099
5.5880880216127
5.589557012995993
5.591032872937078
5.5925156103061235
5.594005232440538
5.595501748643632
5.597005168464265
5.598515501505769
5.600032757426123
5.601556945938116
5.603088076809512
5.604626159863233
5.606171204977521
5.607723222086113
5.609282221178415
5.610848212299678
5.6124212055511755
5.614001211090377
5.615588239131131
5.617182299070807
5.618783400159391
5.6203915525252786
5.622006766353449
5.623629051885549
5.625258419420077
5.626894879312559
5.628538441975734
5.630189117879735
5.631846917552271
5.633511851578813
5.6351839306027856
5.636863165325744
5.6385495665075736
5.640243144966674
5.641943911580152
5.643651877284011
5.645367053073353
5.647089450002563
5.648819079185514
5.650555951795761
5.652300079066741
5.654051472291972
5.6558101428252545
5.657576102080878
5.659349361533822
5.661129932719961
5.662917827236272
5.664713056741047
5.666515632954097
5.6683255676569635
5.670142872313652
5.671967557631571
5.673799635344298
5.675639117318333
5.677486015482538
5.679340341828349
5.681202108409988
5.683071327344691
5.684948010812913
5.686832171058558
5.688723820389202
5.690622971176306
5.69252963585545
5.694443826926554
5.696365556954109
5.698294838567404
5.700231684460754
5.702176107393739
5.704128120191429
5.706087735744624
5.708054967010088
5.710029827010789
5.712012328836139
5.714002485642229
5.71600031065208
5.718005817155881
5.720019018511236
5.722039928143411
5.724068559545586
5.726104926279099
5.728149041973705
5.7302009202750925
5.732260574404642
5.734328017915602
5.736403264538887
5.738486328074594
5.740577222392253
5.742675961431087
5.744782559200272
5.746897029779194
5.749019387317723
5.751149646036466
5.753287820227035
5.755433924252325
5.757587972546769
5.7597499796166245
5.761919960040231
5.7640979284683
5.766283899624182
5.768477888304145
5.77067990937766
5.77288997778768
5.775108108550923
5.777334316758158
5.779568617574494
5.781811026239665
5.7840615580683234
5.786320228450336
5.788587052851074
5.790862046795118
5.793145225448915
5.795436604191327
5.797736198641012
5.800044024493144
5.80236009751971
5.804684433569819
5.8070170485700014
5.80935795852452
5.811707179515675
5.814064727704119
5.816430619329167
5.81880487070911
5.821187498241534
5.823578518403639
5.8259779477525555
5.828385802925673
5.83080210064096
5.833226857697293
5.835660090974785
5.838101817435114
5.840552054121862
5.843010818160842
5.84547812676044
5.847953997211957
5.850438446889942
5.8529314932525445
5.855433153841852
5.857943446284199
5.860462388247886
5.8629899973778885
5.86552629138846
5.868071288078975
5.8706250053342846
5.873187461125064
5.8757586735081855
5.87833866062706
5.880927440712016
5.883525032080653
5.886131453138216
5.888746722377956
5.891370858381512
5.894003879819278
5.896645805450778
5.899296654125054
5.9019564447810335
5.904625196447925
5.907302928245597
5.90998965938497
5.912685409168402
5.915390196990088
5.918104042336452
5.920826964786546
5.92355898401245
5.926300119779678
5.92905039194758
5.931809820469751
5.934578425052183
5.9373562252474965
5.94014324113081
5.942939492876297
5.9457450007538375
5.9485597851294365
5.95138386646565
5.954217265322006
5.9570600023554245
5.959912098320659
5.962773574070718
5.965644450557303
5.968524748831247
5.97141449004295
5.974313695442831
5.97722238638176
5.98014058431152
5.983068310785247
5.986005587457894
5.988952436086681
5.991908878531556
5.994874936755664
5.9978506328258
6.000835988912893
6.003831027292465
6.0068357703451145
6.009850240556989
6.0128744605202655
6.015908453092232
6.0189522413895284
6.022005848158804
6.025069296231469
6.028142608546649
6.031225808151673
6.034318918202561
6.0374219619645375
6.040534962812522
6.043657944231637
6.04679092981772
6.049933943277828
6.0530870084307535
6.056250149207553
6.059423389652054
6.062606753921388
6.065800266286516
6.06900395113276
6.072217832960338
6.075441936384905
6.078676286138089
6.081920907068043
6.085175824139988
6.088441062436766
6.091716647159404
6.095002603627656
6.098298957280589
6.101605733677127
6.104922958360556
6.108250656447927
6.111588853639699
6.114937575830163
6.1182968490357
6.121666699395364
6.1250471531714545
6.1284382367501316
6.131839976641984
6.1352523994826536
6.13867553203341
6.14210940118178
6.145554033942144
6.1490094574563505
6.152475698994346
6.155952785954777
6.159440745865633
6.162939606384868
6.166449395301038
6.169970140533937
6.173501870135235
6.17704461228914
6.1805983953130275
6.184163247658116
6.187739197910108
6.19132627478987
6.194924507154086
6.1985339239959405
6.202154554407339
6.20578642723613
6.209429571596249
6.213084016809575
6.216749792336858
6.220426927778385
6.224115452874695
6.227815397507264
6.231526791699218
6.235249665616031
6.238984049566249
6.242729974002195
6.2464874695207016
6.250256566863831
6.2540372969196065
6.257829690722757
6.2616337794554475
6.265449594448031
6.269277167179798
6.2731165292797355
6.276967712527285
6.280830748853109
6.284705670339864
6.288592509222976
6.292491297891419
6.296402068888508
6.300324854912688
6.304259688818327
6.308206603607435
6.312165632179708
6.31613680758437
6.320120163100743
6.3241157321670896
6.328123548381439
6.332143645502408
6.336176057450034
6.340220818306614
6.34427796231754
6.348347523892157
6.352429537604611
6.356524038194708
6.360631060568782
6.364750639800564
6.368882811132065
6.373027609974447
6.377185071908927
6.3813552326876595
6.385538128234643
6.389733794646631
6.393942268194037
6.398163585321859
6.402397782650608
6.406644896977234
6.4109049652760675
6.415178024699765
6.41946411258026
6.423763266429227
6.428075523794252
6.432400922281758
6.436739499726046
6.441091294144328
6.445456343737712
6.449834686892188
6.4542263621796145
6.458631408358731
6.463049864376152
6.467481769367391
6.471927162657874
6.476386083763971
6.480858572394034
6.485344668449427
6.4898444120255965
6.494357843413101
6.498885003098701
6.503425931766412
6.507980670298591
6.512549259777021
6.517131741484007
6.521728156903473
6.526338547722073
6.530962955830309
6.535601423323653
6.5402539925036836
6.544920705879217
6.549601606167467
6.55429673615885
6.559006138651689
6.563729856752375
6.568467933780026
6.573220413266598
6.577987338958071
6.5827687548156435
6.587564705016932
6.592375233957179
6.597200386250473
6.602040206730973
6.606894740454144
6.611764032698001
6.616648128964363
6.621547074980113
6.626460916698463
6.631389700300245
6.636333472195192
6.641292279023233
6.646266167655808
6.651255185197178
6.656259378985753
6.661278796595419
6.666313485836903
6.6713634947591025
6.676428871650464
6.681509665040357
6.686605923700448
6.691717696692415
6.696845033265613
6.701987982682853
6.707146594444965
6.712320918300589
6.717511004247586
6.7227169025344935
6.727938663661963
6.733176338384227
6.738429977710573
6.743699632906814
6.748985355496796
6.754287197263886
6.759605210252498
6.76493944676961
6.770289959386307
6.775656800939328
6.7810400245326115
6.78643968353889
6.7918558316012465
6.797288522634725
6.802737810827926
6.808203750644633
6.813686396825425
6.819185804389334
6.824702028635489
6.830235125144775
6.835785149781527
6.841352158568737
6.846936207258932
6.852537352231978
6.858155650215843
6.863791158228607
6.869443933580202
6.875114033874162
6.880801517009377
6.886506441181875
6.892228864886594
6.897968846919203
6.903726446377893
6.909501722665223
6.9152947354899466
6.9211055448688725
6.926934211128734
6.932780794908066
6.938645357159107
6.944527959149702
6.95042866246524
6.956347529010578
6.962284621012007
6.968240001019214
6.97421373190727
6.980205876878625
6.986216499465124
6.992245663530037
6.998293433270097
7.004359873321186
7.010445049367904
7.01654902655952
7.022671870155534
7.028813645757335
7.034974419310318
7.04115425710602
7.047353225784274
7.053571392335373
7.05980882410226
7.066065588782723
7.072341754431627
7.0786373894631325
7.084952562652962
7.091287343140661
7.097641800431897
7.104016004400752
7.110410025292055
7.116823933723721
7.123257800689108
7.129711697559398
7.136185696085996
7.1426798684029364
7.1491942870293235
7.155729024871784
7.162284155226938
7.168859751783885
7.175455888626729
7.182072640212202
7.1887100807855395
7.195368285151279
7.202047328727516
7.208747287338166
7.215468237215581
7.222210255003178
7.228973417758089
7.235757802953842
7.2425634884830465
7.249390552660119
7.25623907422401
7.263109132340974
7.2700008066073405
7.276914177052327
7.283849324140859
7.290806328776418
7.297785272303916
7.304786236512583
7.311809303638894
7.3188545563695
7.325922077844202
7.333011951658923
7.340124261868744
7.347259092990916
7.354416530007936
7.361596658370629
7.3687995640012565
7.376025333295712
7.383274052883326
7.390545809664234
7.39784069109243
7.405158785106241
7.412500180131534
7.419864965084995
7.427253229377409
7.434665062916974
7.442100556112641
7.449559799877484
7.457042885632093
7.4645499053079964
7.472080951351118
7.479636116725249
7.487215494915567
7.494819179932164
7.502447266313618
7.510099849130589
7.517777023989442
7.525478887035912
7.5332055349587765
7.540957064993587
7.548733574926411
7.556535163097605
7.564361928405643
7.5722139703109415
7.580091388839743