5.628295261601109
5.620916068428473
5.61356232987321
5.6062339275849995
5.598930743460858
5.591652660145391
5.584399561031147
5.577171330252723
5.569967852680914
5.562789013916935
5.555634700286689
5.548504798835086
5.541399197320425
5.534317784208819
5.527260448668681
5.520227080565251
5.513217570455185
5.506231809581191
5.49926968986671
5.492331103910654
5.485415944982188
5.478524107015559
5.471655484604983
5.464809972999564
5.457987468098275
5.451187866444973
5.444411065223467
5.4376569622526345
5.430925455981568
5.424216445480788
5.417529830270003
5.41086551036774
5.404223386426829
5.397603359709401
5.391005332082278
5.384429206012398
5.377874884562287
5.371342271385563
5.364831270722495
5.35834178739559
5.351873726805229
5.34542699492533
5.339001498299066
5.332597144034607
5.3262138398009125
5.319851493823551
5.313510014880563
5.307189312298363
5.3008892959476706
5.294609876239481
5.288350964121081
5.282112471072082
5.275894309100504
5.269696390738888
5.2635186290404405
5.257360937575217
5.251223230426337
5.245105422136898
5.239007427467721
5.232929161732503
5.226870540765735
5.220831480898978
5.2148118989572465
5.208811712255424
5.202830838594712
5.196869196259103
5.190926704011888
5.185003281092203
5.179098847211589
5.173213322550592
5.167346627755398
5.161498683934479
5.155669412655287
5.149858735940967
5.144066576267098
5.138292856558463
5.132537500185854
5.1268004309628905
5.121081573142878
5.115380851415684
5.10969819090465
5.104033517163522
5.098386756173406
5.092757834339765
5.0871466784894155
5.081553215941415
5.075977374314946
5.070419081449277
5.06487826559442
5.059354855409201
5.053848779958414
5.048359968709968
5.042888351532083
5.037433858690496
5.0319964208456955
5.026575969050174
5.021172434745711
5.0157857497606795
5.0104158463073585
5.005062656979289
4.999726114748645
4.994406152963614
4.989102705345821
4.983815705987753
4.978545089350224
4.973290790259841
4.968052743906511
4.96283088584095
4.9576251519722305
4.95243547856533
4.947261802238717
4.942104059961951
4.936962189050212
4.931836127048563
4.926725811750067
4.921631181297438
4.916552174174473
4.911488729203753
4.90644078554435
4.9014082826895695
4.896391160464695
4.891389359024765
4.886402818852355
4.881431480755389
4.876475285864962
4.871534175633177
4.8666080918310115
4.861696976546188
4.856800772181074
4.851919421450582
4.8470528673801025
4.842201053303452
4.837363922860824
4.832541419996772
4.827733488958197
4.822940074292362
4.818161120844906
4.8133965737579025
4.808646378467891
4.803910480703968
4.799188826498375
4.794481362131906
4.789788034026812
4.785108788881392
4.780443573678496
4.775792335683667
4.771155022443308
4.766531581782851
4.761921961804952
4.757326110887692
4.752743977682796
4.748175511113867
4.743620660374624
4.739079374927177
4.73455160450028
4.730037299087635
4.725536408946182
4.721048884594414
4.716574676810707
4.712113736631652
4.707666015350413
4.703231464515089
4.698810035927092
4.694401681639538
4.690006353955641
4.685624005427143
4.681254588852724
4.676898057276454
4.672554363882404
4.668223461972724
4.663905305160143
4.659599847298069
4.655307042478821
4.65102684503212
4.646759209523608
4.64250409075336
4.638261443754422
4.634031223791346
4.6298133863587525
4.625607887179889
4.621414682205208
4.617233727610955
4.613064979797761
4.608908395389255
4.604763931230681
4.600631544387523
4.596511192144148
4.592402832002452
4.58830642168052
4.5842219191113
4.580149282441271
4.576088470029142
4.572039440444548
4.568002152466755
4.56397656508338
4.559962637486192
4.555960328978451
4.551969598989154
4.547990407154674
4.544022713314665
4.540066477510826
4.536121659985672
4.532188221181313
4.528266121738249
4.52435532249416
4.520455784482724
4.516567468932423
4.5126903372653775
4.5088243510961705
4.504969472230699
4.501125662665016
4.497292884584198
4.493471100361202
4.489660272555753
4.485860363913217
4.4820713373635
4.478293156019943
4.474525783178234
4.470769182315321
4.467023317088335
4.463288151333527
4.459563649065198
4.455849774474653
4.452146492007021
4.448453766431701
4.444771562369453
4.441099844586226
4.437438578020633
4.433787727782931
4.430147259154008
4.426517137584386
4.422897328693227
4.419287798267341
4.415688512260212
4.412099436791019
4.408520538143672
4.404951782765855
4.4013931372680695
4.397844568422687
4.3943060431630165
4.390777528582367
4.387258991933121
4.383750400625817
4.3802517222282376
4.376762924464499
4.373283975214155
4.3698148425113
4.366355494543683
4.362905899651826
4.359466026328152
4.356035843216107
4.352615318860303
4.349204421852524
4.345803121160387
4.342411385899989
4.339029185334968
4.335656488875653
4.3322932660782385
4.328939486643949
4.32559512041822
4.32226013738988
4.318934507690339
4.315618201592784
4.312311189511373
4.309013442000451
4.30572492975375
4.302445623603614
4.29917549452021
4.295914513610768
4.2926626521188025
4.289419881423355
4.28618617303824
4.2829614986112805
4.279745829923576
4.276539138888754
4.273341397552231
4.270152578090484
4.266972652810324
4.263801594161855
4.260639374864341
4.257485967564772
4.254341344969846
4.251205479913707
4.24807834535724
4.24495991438738
4.241850160216407
4.238749056181265
4.235656575742877
4.232572692485458
4.229497380115844
4.226430612462824
4.22337236347647
4.220322607227473
4.217281317906491
4.214248469823491
4.211224037407101
4.208207995203971
4.205200317878124
4.202200980210329
4.199209957097461
4.1962272235518805
4.193252754700808
4.1902865257857025
4.187328512161652
4.1843786892967545
4.1814370327715205
4.178503518237285
4.175578121317203
4.172660817814228
4.169751583650101
4.166850394856568
4.163957227574785
4.161072058054738
4.158194862654665
4.1553256178404725
4.15246430018517
4.149610886368296
4.146765353175355
4.143927677497255
4.141097836329752
4.138275806772892
4.1354615660304646
4.132655091409451
4.129856360319485
4.1270653502723125
4.124282038881252
4.121506403860666
4.1187384230254285
4.1159780742904015
4.113225335669909
4.11048018527722
4.107742601324035
4.10501256211997
4.102290046072061
4.099575031757754
4.096867497779472
4.094167422733378
4.0914747853115605
4.088789564301545
4.086111738585797
4.083441287141225
4.080778189038702
4.0781224234425695
4.07547396961017
4.072832806891354
4.070198914728015
4.067572272653612
4.064952860292701
4.06234065736047
4.059735643662272
4.057137799093168
4.054547103637468
4.0519635373682785
4.049387080447044
4.046817713123107
4.044255415733257
4.041700168701286
4.0391519525375505
4.036610747838535
4.034076535286413
4.031549295648619
4.029029009790614
4.026515658772932
4.024009223576929
4.021509685219088
4.019017024799468
4.016531223501284
4.014052262590487
4.01158012341535
4.009114787406061
4.006656236074306
4.004204451012869
4.001759413895224
3.9993211064751324
3.9968895105862488
3.9944646081417194
3.99204638113379
3.9896348116334153
3.9872298817898666
3.9848315738303466
3.9824398700596046
3.9800547528595556
3.977676204688901
3.975304208082745
3.9729387456522307
3.9705798000841557
3.9682273541406095
3.9658813906586032
3.963541892549704
3.9612088428601173
3.958882224787354
3.956562021401427
3.9542482158337533
3.951940791288861
3.9496397310440328
3.94734501844895
3.945056636925346
3.942774569966653
3.940498801137658
3.938229314074159
3.9359660924826154
3.9337091201398193
3.931458380892547
3.9292138586572256
3.9269755374196005
3.924743401234403
3.922517434225017
3.920297620583152
3.9180839445685223
3.9158763905085117
3.9136749427978628
3.911479585898349
3.909290304338457
3.907107082713077
3.904929905683177
3.9027587579754996
3.900593624382559
3.8984344899074084
3.896281339538907
3.8941341581846234
3.891992930816713
3.8898576424716143
3.887728278249741
3.8856048233151874
3.8834872628954256
3.88137558228101
3.8792697668252822
3.8771698019440746
3.8750756731154237
3.8729873658792755
3.870904865837198
3.868828158652095
3.866757230047924
3.8646920658094084
3.862632651781758
3.860578973870389
3.8585310180406474
3.856488770317531
3.8544522167854116
3.8524213435877686
3.85039613692691
3.8483765830637107
3.846362668317332
3.8443543790649706
3.8423517017747644
3.840354623243767
3.838363130053684
3.8363772087592296
3.8343968459720528
3.8324220283604755
3.8304527426492387
3.8284889756192424
3.8265307141072915
3.824577945005843
3.822630655262759
3.820688831881046
3.818752461918617
3.816821532488036
3.814896030756279
3.812975943944483
3.811061259327708
3.809151964234693
3.807248046047617
3.80534949220186
3.803456290185763
3.8015684275403987
3.799685891859329
3.797808670788377
3.7959367520253937
3.7940701233200262
3.792208772473492
3.790352687338347
3.7885018557765364
3.786656265609105
3.784815904784519
3.7829807613067117
3.781150823230036
3.779326078659041
3.7775065157482537
3.7756921227019604
3.7738828877739876
3.772078799267483
3.7702798455347044
3.7684860149768054
3.7666972960436182
3.7649136772334475
3.7631351470928553
3.7613616942164563
3.759593307246705
3.7578299748736947
3.7560716858349457
3.754318428915207
3.7525701929462465
3.750826966806655
3.749088739421644
3.7473554997628407
3.745627236848098
3.74390393974129
3.7421855975521185
3.740472199435814
3.738763734566121
3.7370601921393076
3.7353615614049613
3.7336678316576855
3.7319789922368996
3.730295032526659
3.7286159419554608
3.7269417099960576
3.7252723261652694
3.7236077800238
3.7219480611760534
3.7202931592699477
3.7186430639967325
3.71699776509081
3.7153572523295555
3.7137215155331327
3.7120905445643215
3.710464329328337
3.7088428597726537
3.7072261258868338
3.705614117702347
3.704006825292401
3.702404238771771
3.7008063482966227
3.6992131440643465
3.6976246163133872
3.696040755323074
3.694461551401306
3.692886994784309
3.691317075784686
3.689751784774115
3.688191112164563
3.686635048408126
3.685083583996859
3.6835367094626195
3.681994415376901
3.6804566923506736
3.6789235310342225
3.6773949221169913
3.6758708563274207
3.674351324432793
3.6728363172390757
3.6713258255907637
3.6698198403707254
3.6683183525000502
3.666821352937893
3.6653288326813245
3.663840782765177
3.6623571942618964
3.660878058281391
3.6594033659708822
3.6579331085147584
3.6564672771344267
3.655005863088164
3.6535488576709776
3.6520962524510643
3.6506480393058376
3.649204209595406
3.647764754694066
3.6463296660123388
3.6448989349968275
3.6434725531300787
3.6420505119304365
3.6406328029519073
3.639219417784017
3.6378103480516737
3.6364055854150292
3.6350051215693444
3.633608948244848
3.6322170572066073
3.630829440254388
3.6294460892225224
3.6280669959797773
3.626692152429218
3.625321550508082
3.6239551821876415
3.622593039473078
3.6212351144033503
3.6198813990510668
3.6185318855223545
3.617186565956737
3.6158454325270024
3.6145084774390797
3.6131756929319128
3.6118470712773383
3.610522604779956
3.609202285777012
3.6078861066382717
3.606574059765899
3.605266137594336
3.6039623325901826
3.602662637252075
3.601367044110568
3.6000755457280142
3.59878813469845
3.5975048036474737
3.5962255452321346
3.5949503521408097
3.5936792172092256
3.5924121338347925
3.591149094805347
3.5898900928217707
3.5886351206160243
3.5873841709510366
3.5861372366205857
3.58489431044919
3.5836553852919923
3.5824204540346454
3.581189509593208
3.5799625449140233
3.578739552973617
3.577520526778583
3.5763054593654737
3.575094343800695
3.573887173180395
3.572683940630357
3.5714846393058934
3.5702892623917393
3.569097803101944
3.5679102546797714
3.5667266110385434
3.5655468665011663
3.564371014384924
3.5631990480216533
3.5620309607719736
3.5608667460251837
3.5597063971991583
3.558549907740246
3.557397271123173
3.5562484808509387
3.5551035304547183
3.5539624134937626
3.5528251235552997
3.551691654254439
3.5505619992340702
3.5494361521647706
3.5483141067447064
3.5471958566995356
3.546081395782316
3.544970717773409
3.5438638164803846
3.542760685782803
3.5416613206187053
3.540565715316638
3.539473863767875
3.538385759890513
3.5373013976293755
3.536220770955924
3.5351438738681664
3.5340707003905685
3.533001244573962
3.531935500495456
3.5308734622583517
3.5298151239920466
3.528760479851956
3.5277095240194205
3.5266622507016185
3.525618654131484
3.5245787285676164
3.5235424682942007
3.5225098676209163
3.521480920882858
3.520455622440449
3.5194339669315258
3.518415949780226
3.517401565519183
3.5163908085983273
3.515383673492544
3.5143801547015934
3.5133802467500286
3.512383944187116
3.511391241586753
3.5104021335473923
3.509416614691961
3.5084346796677806
3.5074563231464904
3.506481539823971
3.5055103244202632
3.5045426716794954
3.5035785763698035
3.502618033283259
3.501661037235788
3.500707583067102
3.4997576656406193
3.4988112798433906
3.4978684209865505
3.496929084454256
3.4959932652102275
3.4950609582411993
3.494132158557169
3.4932068611913287
3.4922850611999894
3.4913667536625126
3.49045193368124
3.4895405963814237
3.488632736911154
3.4877283504412926
3.486827432165404
3.485929977299684
3.4850359810828953
3.484145438776298
3.4832583456635806
3.482374697050797
3.4814944882662977
3.4806177146606627
3.479744371606637
3.4788744545095276
3.4780079589208293
3.4771448803293854
3.476285214207274
3.475428956048397
3.474576101368411
3.4737266457046703
3.4728805846161603
3.4720379136834363
3.471198628508563
3.4703627247150504
3.4695301979829636
3.468701044129598
3.4678752587691157
3.4670528375039256
3.466233775957785
3.465418069775734
3.4646057146240397
3.463796706190129
3.462991040182534
3.462188712330829
3.461389718385571
3.460594054511191
3.4598017175954427
3.4590127034874447
3.4582270079893553
3.457444626924094
3.4566655561352833
3.4558897914871918
3.4551173288646737
3.4543481641731164
3.4535822933383784
3.452819712306735
3.452060417819248
3.4513044068837377
3.4505516752776666
3.449802218787046
3.4490560332184583
3.448313114398998
3.4475734581762127
3.4468370604180434
3.4461039170127665
3.4453740238689368
3.444647376931479
3.4439239753509607
3.4432038171465162
3.442486897804654
3.4417732128327563
3.4410627577590183
3.4403555281323794
3.4396515195224584
3.4389507275194893
3.438253147734256
3.4375587757980277
3.4368676076515734
3.4361796449899145
3.435494885998882
3.434813326513487
3.4341349623888022
3.433459789499902
3.432787803741806
3.4321190010294162
3.431453377297461
3.430790928500435
3.43013165061254
3.4294755403234567
3.428822598966997
3.4281728236930764
3.427526210563112
3.426882755658004
3.426242455078075
3.4256053049430135
3.4249713013918197
3.4243404405827493
3.4237127186932614
3.42308813191996
3.422466677777918
3.421848357406288
3.4212331675941092
3.4206211046862376
3.420012165046372
3.4194063450570003
3.4188036411193514
3.4182040496533443
3.417607567097534
3.4170141899090654
3.416423914563622
3.4158367395178044
3.415252665186301
3.4146716881781853
3.4140938050120466
3.4135190122248673
3.4129473063719744
3.41237868402699
3.4118131417817867
3.411250676246435
3.4106912840491597
3.410134961836289
3.4095817062722107
3.409031516121979
3.408484392519985
3.407940332348031
3.4073993323611824
3.406861389332376
3.406326500052372
3.4057946613297103
3.405265869990665
3.404740122879202
3.4042174168569335
3.4036977488030744
3.4031811156144007
3.4026675161000357
3.402156951466383
3.4016494188145012
3.401144915099856
3.4006434372953347
3.400144982391205
3.399649547395074
3.399157129331844
3.3986677252436737
3.3981813321899357
3.397697947247178
3.397217567509079
3.396740191846745
3.396265821661451
3.3957944543692435
3.3953260872188658
3.3948607174759617
3.3943983424230417
3.393938959359442
3.393482565601289
3.3930291584814625
3.3925787353495593
3.3921312935718584
3.39168683053128
3.391245343627357
3.390806830710451
3.390371293200908
3.389938729518423
3.389509137136086
3.389082513543467
3.3886588562465825
3.388238162767859
3.3878204306461037
3.3874056574364655
3.386993840710408
3.38658497805567
3.3861790670762386
3.3857761053923126
3.3853760906464583
3.384979023397405
3.38458490372715
3.3841937293233073
3.3838054978895973
3.3834202071458144
3.3830378548277924
3.3826584386873786
3.3822819564924007
3.381908406026637
3.381537785089786
3.381170091497438
3.3808053230810446
3.380443477687889
3.3800845531810566
3.3797285475501657
3.3793754620372565
3.379025296220295
3.378678048158928
3.378333715928403
3.377992297619546
3.377653791338734
3.377318195207872
3.3769855073643664
3.376655725961102
3.376328849166415
3.3760048751640714
3.375683802153242
3.3753656283484776
3.375050351979688
3.374737971529655
3.3744284877324104
3.3741218994661155
3.3738182049535905
3.373517402432981
3.373219490157733
3.3729244663965687
3.3726323294334666
3.372343077567636
3.372056709113494
3.371773222400644
3.371492615773853
3.371214887593032
3.3709400362332076
3.3706680600845087
3.370398957552137
3.3701327270563533
3.369869367360925
3.3696088801579402
3.369351264808148
3.3690965198769853
3.3688446439448367
3.368595635607013
3.368349493473734
3.3681062161701085
3.36786580233612
3.367628250626603
3.3673935597112314
3.367161728274496
3.3669327550156916
3.366706638648896
3.366483377902957
3.3662629715214707
3.3660454182627713
3.3658307171265816
3.3656188689751296
3.3654098731195106
3.365203728387039
3.3650004336197044
3.3647999876741634
3.3646023894217176
3.3644076377483048
3.3642157315544785
3.364026669755399
3.363840451280814
3.36365707507505
3.3634765400969946
3.363298845320082
3.363123989732284
3.3629519723360923
3.3627827921485083
3.3626164483990406
3.362452941846847
3.362292271997435
3.362134437987111
3.3619794389666318
3.361827274101185
3.3616779425703873
3.3615314435682677
3.361387776303261
3.361246939998193
3.3611089338902773
3.3609737572310983
3.360841409286606
3.360711889337105
3.3605851966772455
3.3604613306160145
3.3603402904767252
3.360222075597011
3.360106685328815
3.359994119215831
3.359884377530099
3.3597774597778174
3.3596733653543582
3.3595720936693816
3.3594736441468243
3.359378016224891
3.3592852093560523
3.359195223007031
3.3591080566643545
3.3590237103867904
3.3589421840301905
3.3588634770770196
3.3587875890239802
3.358714519382007
3.358644267676261
3.3585768334461226
3.3585122162451837
3.3584504156412422
3.3583914314900762
3.358335264251632
3.3582819135758117
3.3582313790604843
3.358183660317716
3.3581387580821525
3.3580966725141668
3.3580574019967124
3.3580209449238607
3.357987299843893
3.3579564695914534
3.3579284574937978
3.3579032653954326
3.3578808872901287
3.3578613120432332
3.357844549481605
3.357830644342505
3.3578195707185
3.3578112718093602
3.357805725903011
3.3578029851884623
3.35780306330047
3.3578059587793057
3.357811666333855
3.3578201856977428
3.357831510881204
3.357845606259024