7.580091388839442
7.57221397031064
7.564361928405343
7.556535163097307
7.548733574926113
7.540957064993291
7.533205534958482
7.52547888703562
7.517777023989152
7.5100998491303
7.5024472663133315
7.494819179931879
7.487215494915283
7.479636116724965
7.4720809513508355
7.464549905307716
7.457042885631813
7.449559799877205
7.442100556112363
7.434665062916695
7.42725322937713
7.419864965084715
7.412500180131254
7.405158785105959
7.397840691092149
7.390545809663949
7.38327405288304
7.376025333295423
7.3687995640009625
7.361596658370332
7.3544165300076365
7.347259092990616
7.340124261868444
7.333011951658623
7.3259220778439005
7.3188545563692005
7.311809303638594
7.304786236512286
7.297785272303619
7.290806328776124
7.283849324140567
7.276914177052038
7.270000806607053
7.263109132340688
7.2562390742237275
7.249390552659839
7.242563488482771
7.235757802953567
7.228973417757817
7.222210255002907
7.215468237215314
7.208747287337901
7.202047328727251
7.195368285151016
7.188710080785278
7.182072640211943
7.175455888626465
7.168859751783621
7.16228415522667
7.155729024871515
7.149194287029054
7.142679868402665
7.136185696085726
7.129711697559127
7.1232578006888385
7.11682393372345
7.110410025291787
7.104016004400483
7.09764180043163
7.091287343140394
7.0849525626526955
7.078637389462865
7.0723417544313625
7.066065588782458
7.059808824101992
7.053571392335108
7.047353225784008
7.041154257105755
7.034974419310051
7.028813645757065
7.022671870155264
7.016549026559247
7.010445049367629
7.004359873320905
6.998293433269818
6.992245663529757
6.986216499464847
6.980205876878348
6.974213731906996
6.968240001018945
6.962284621011739
6.956347529010315
6.950428662464979
6.944527959149446
6.938645357158853
6.932780794907818
6.926934211128489
6.921105544868634
6.915294735489712
6.90950172266499
6.903726446377665
6.897968846918977
6.892228864886373
6.886506441181656
6.8808015170091625
6.875114033873951
6.869443933579993
6.863791158228399
6.858155650215638
6.852537352231776
6.84693620725873
6.841352158568536
6.835785149781322
6.83023512514457
6.824702028635279
6.819185804389127
6.813686396825216
6.808203750644421
6.802737810827717
6.7972885226345126
6.791855831601035
6.786439683538678
6.781040024532403
6.775656800939118
6.770289959386099
6.764939446769402
6.759605210252288
6.754287197263679
6.748985355496589
6.74369963290661
6.738429977710366
6.733176338384022
6.7279386636617575
6.722716902534289
6.717511004247383
6.712320918300383
6.70714659444476
6.7019879826826445
6.696845033265405
6.691717696692204
6.686605923700238
6.681509665040146
6.676428871650253
6.6713634947588885
6.66631348583669
6.661278796595208
6.656259378985539
6.651255185196969
6.6462661676556
6.641292279023026
6.636333472194985
6.631389700300041
6.62646091669826
6.62154707497991
6.616648128964165
6.611764032697804
6.606894740453948
6.602040206730779
6.597200386250282
6.5923752339569885
6.587564705016744
6.582768754815457
6.577987338957885
6.573220413266413
6.568467933779842
6.563729856752191
6.559006138651504
6.5542967361586655
6.549601606167281
6.544920705879029
6.5402539925034935
6.535601423323465
6.53096295583012
6.526338547721883
6.521728156903284
6.517131741483817
6.512549259776832
6.507980670298402
6.503425931766223
6.498885003098516
6.494357843412915
6.489844412025413
6.485344668449247
6.480858572393854
6.476386083763793
6.471927162657697
6.467481769367214
6.463049864375978
6.458631408358555
6.454226362179442
6.4498346868920144
6.445456343737541
6.441091294144156
6.436739499725874
6.4324009222815866
6.428075523794082
6.423763266429055
6.419464112580088
6.415178024699591
6.410904965275893
6.406644896977059
6.402397782650433
6.398163585321684
6.393942268193862
6.389733794646455
6.38553812823447
6.3813552326874845
6.377185071908756
6.373027609974277
6.368882811131896
6.364750639800397
6.360631060568616
6.356524038194542
6.352429537604445
6.348347523891994
6.344277962317377
6.340220818306453
6.336176057449875
6.332143645502249
6.328123548381282
6.324115732166934
6.3201201631005866
6.316136807584215
6.312165632179551
6.308206603607277
6.30425968881817
6.300324854912527
6.296402068888349
6.2924912978912575
6.2885925092228145
6.2847056703397035
6.280830748852949
6.276967712527124
6.273116529279575
6.269277167179638
6.26544959444787
6.2616337794552885
6.257829690722599
6.254037296919451
6.250256566863674
6.246487469520547
6.2427299740020405
6.238984049566095
6.235249665615879
6.231526791699066
6.227815397507114
6.224115452874544
6.220426927778235
6.216749792336708
6.213084016809428
6.2094295715960985
6.205786427235979
6.202154554407188
6.198533923995789
6.194924507153932
6.191326274789714
6.187739197909953
6.184163247657958
6.18059839531287
6.177044612288981
6.173501870135077
6.169970140533778
6.16644939530088
6.162939606384712
6.159440745865476
6.155952785954622
6.152475698994191
6.1490094574561995
6.145554033941991
6.142109401181629
6.138675532033263
6.135252399482506
6.1318399766418406
6.128438236749987
6.125047153171313
6.121666699395223
6.118296849035563
6.114937575830025
6.111588853639561
6.108250656447791
6.104922958360421
6.101605733676993
6.098298957280452
6.0950026036275196
6.091716647159264
6.088441062436628
6.0851758241398475
6.081920907067903
6.078676286137948
6.075441936384763
6.072217832960197
6.0690039511326175
6.065800266286374
6.062606753921245
6.059423389651911
6.0562501492074095
6.053087008430611
6.049933943277682
6.046790929817576
6.043657944231493
6.040534962812376
6.03742196196439
6.0343189182024135
6.031225808151523
6.0281426085465
6.025069296231318
6.022005848158651
6.018952241389375
6.015908453092076
6.012874460520108
6.009850240556831
6.006835770344955
6.003831027292307
6.000835988912734
5.997850632825644
5.994874936755507
5.991908878531401
5.988952436086526
5.986005587457741
5.983068310785095
5.9801405843113695
5.977222386381611
5.974313695442684
5.971414490042806
5.968524748831105
5.965644450557162
5.962773574070581
5.959912098320523
5.957060002355291
5.954217265321873
5.951383866465521
5.948559785129308
5.945745000753711
5.942939492876173
5.940143241130688
5.937356225247375
5.934578425052063
5.931809820469632
5.92905039194746
5.926300119779558
5.923558984012329
5.920826964786425
5.9181040423363305
5.915390196989967
5.91268540916828
5.909989659384848
5.907302928245477
5.904625196447805
5.901956444780914
5.899296654124934
5.89664580545066
5.894003879819159
5.8913708583813955
5.888746722377839
5.886131453138099
5.883525032080537
5.880927440711901
5.8783386606269445
5.875758673508069
5.87318746112495
5.870625005334168
5.868071288078861
5.865526291388345
5.862989997377773
5.86046238824777
5.8579434462840805
5.855433153841734
5.852931493252425
5.850438446889823
5.847953997211837
5.845478126760322
5.843010818160722
5.840552054121742
5.838101817434995
5.835660090974666
5.833226857697177
5.8308021006408435
5.828385802925557
5.82597794775244
5.823578518403525
5.821187498241421
5.818804870708997
5.816430619329055
5.814064727704007
5.811707179515564
5.80935795852441
5.807017048569893
5.804684433569712
5.802360097519604
5.800044024493038
5.797736198640907
5.795436604191222
5.793145225448811
5.790862046795014
5.788587052850969
5.786320228450231
5.784061558068218
5.7818110262395574
5.7795686175743874
5.777334316758051
5.775108108550816
5.772889977787573
5.770679909377552
5.768477888304036
5.766283899624074
5.7640979284681935
5.761919960040125
5.759749979616518
5.7575879725466645
5.755433924252221
5.753287820226931
5.751149646036361
5.749019387317619
5.746897029779092
5.744782559200169
5.742675961430986
5.740577222392152
5.738486328074493
5.736403264538786
5.734328017915502
5.732260574404542
5.730200920274992
5.728149041973603
5.726104926278996
5.724068559545481
5.722039928143306
5.720019018511129
5.718005817155776
5.716000310651974
5.714002485642123
5.712012328836032
5.710029827010683
5.70805496700998
5.706087735744517
5.7041281201913225
5.702176107393634
5.700231684460649
5.698294838567299
5.696365556954005
5.69444382692645
5.6925296358553465
5.690622971176204
5.688723820389102
5.68683217105846
5.684948010812814
5.683071327344593
5.6812021084098925
5.679340341828254
5.677486015482445
5.675639117318242
5.673799635344207
5.671967557631483
5.670142872313562
5.6683255676568765
5.666515632954006
5.664713056740955
5.662917827236178
5.661129932719865
5.659349361533725
5.657576102080781
5.655810142825156
5.654051472291872
5.652300079066641
5.650555951795662
5.648819079185413
5.647089450002462
5.645367053073253
5.643651877283912
5.641943911580052
5.6402431449665755
5.638549566507476
5.6368631653256465
5.635183930602687
5.633511851578717
5.631846917552175
5.630189117879641
5.628538441975641
5.6268948793124665
5.625258419419984
5.623629051885458
5.622006766353358
5.62039155252519
5.618783400159302
5.617182299070719
5.615588239131044
5.6140012110902875
5.612421205551085
5.610848212299586
5.609282221178321
5.607723222086019
5.606171204977427
5.604626159863139
5.603088076809418
5.601556945938023
5.600032757426032
5.598515501505679
5.597005168464176
5.595501748643546
5.5940052324404546
5.592515610306044
5.591032872936999
5.589557012995913
5.588088021612617
5.586625889374018
5.585170606920874
5.583722164947646
5.582280554202326
5.580845765486283
5.579417789654103
5.577996617613426
5.576582240324796
5.575174648801499
5.573773834109412
5.57237978736685
5.5709924997444045
5.569611962464806
5.568238167819535
5.566871109819615
5.565510779771546
5.564157168868917
5.562810268357209
5.561470069533638
5.560136563747014
5.558809742397582
5.557489596936879
5.5561761188675876
5.554869299743385
5.553569131168802
5.552275604799076
5.550988712340011
5.549708445547831
5.548434796240652
5.547167759200251
5.545907328734208
5.5446534969961885
5.543406256189293
5.542165598565929
5.540931516427681
5.539704002125177
5.538483048057965
5.537268646674382
5.536060790471425
5.534859471994635
5.53366468383796
5.532476418643641
5.531294669102079
5.530119427951723
5.528950687990294
5.527788442062204
5.526632682830686
5.525483402970934
5.52434059520601
5.523204252306716
5.522074367091474
5.5209509324262065
5.51983394122422
5.518723386446073
5.5176192610994725
5.516521558239147
5.515430270966737
5.514345392430673
5.5132669158260645
5.512194834394585
5.511129142748729
5.510069837251717
5.509016911446429
5.507970358806783
5.506930172852686
5.505896347149938
5.504868875310116
5.503847750990472
5.502832967893828
5.50182451976847
5.500822400408048
5.499826603651471
5.498837123382804
5.497853953531173
5.496877088070661
5.495906521036642
5.494942247750066
5.49398426298492
5.49303256072425
5.4920871349958205
5.491147979872036
5.490215089469824
5.489288457950551
5.488368079519921
5.487453948427878
5.4865460589685116
5.485644405479969
5.484748982344352
5.483859783987633
5.4829768048795575
5.482100039533554
5.4812294829950625
5.480365133070044
5.479506984951697
5.478655033286702
5.477809272765089
5.4769696981201434
5.476136304128321
5.475309085609166
5.474488037425222
5.473673154481951
5.472864431727645
5.472061864153352
5.471265446792787
5.4704751747222495
5.469691043060552
5.468913046968931
5.468141182548197
5.467375446743567
5.466615834925325
5.465862342467999
5.465114964788144
5.464373697344265
5.463638535636749
5.46290947520779
5.462186511641317
5.46146964056292
5.460758857639786
5.460054158580621
5.459355539218943
5.458662996071206
5.457976524999457
5.457296121704698
5.4566217819292975
5.455953501456923
5.45529127611247
5.454635101761995
5.45398497431265
5.453340889712616
5.452702843951031
5.4520708330579355
5.451444853104197
5.4508249013540855
5.450210975373379
5.449603071501164
5.449001186115547
5.44840531563506
5.447815456518612
5.447231605265425
5.446653758414983
5.4460819125469735
5.445516064281237
5.444956210277709
5.444402347236376
5.443854471507538
5.443312578000131
5.442776663682119
5.442246725876355
5.441722761945103
5.441204769289991
5.44069274535198
5.440186687611321
5.439686593587525
5.439192460839318
5.438704286964613
5.4382220696004735
5.437745806327692
5.437275484793472
5.43681109922401
5.436352652019806
5.435900145617102
5.4354535824879475
5.435012965140281
5.4345782887256355
5.434149541457586
5.4337267207484645
5.433309824162659
5.432898849303536
5.4324937938134
5.43209465537346
5.431701431703794
5.43131412056331
5.4309327197497135
5.430557227099474
5.43018764048779
5.429823957828557
5.429466177074335
5.4291142962163175
5.4287683132843
5.428428226346647
5.428094033510267
5.427765732920584
5.427443322761502
5.427126801255382
5.42681616666302
5.426511417283609
5.42621255145472
5.425919567552277
5.4256324639905325
5.4253512392220395
5.425075891737631
5.4248064200664
5.424542822775669
5.424285098470977
5.424033245796057
5.42378726343281
5.4235471501012915
5.4233129045596895
5.423084525604309
5.422862012069547
5.4226453628243
5.422434576418907
5.422229651452702
5.42203058675624
5.421837381198131
5.421650033685019
5.4214685431615655
5.421292908610437
5.421123129052282
5.420959203545724
5.420801131187343
5.420648911111659
5.420502542491127
5.420362024536115
5.420227356494899
5.42009853765365
5.41997556733642
5.419858444905136
5.41974716975959
5.419641741338437
5.419542159107665
5.419448422464959
5.419360530820499
5.419278483622302
5.4192022803562185
5.419131920545925
5.419067403752911
5.419008729576479
5.418955897653734
5.418908907659577
5.418867759306702
5.41883245234559
5.418802986564509
5.418779361789504
5.418761577884398
5.4187496347507915
5.418743532328057
5.4187432705933425
5.418748849627908
5.418760270245658
5.418777532619716
5.418800636708099
5.4188295825066035
5.418864370048812
5.418904999406082
5.41895147068756
5.419003784040167
5.419061939648616
5.4191259377354
5.419195778560804
5.419271462422904
5.419352989657574
5.419440360638487
5.419533575777125
5.4196326355227775
5.419737540362558
5.419848290821401
5.419964887685109
5.420087333082219
5.420215627809912
5.4203497723856735
5.420489767364852
5.420635613340666
5.420787310944211
5.420944860844465
5.4211082637483035
5.4212775204005075
5.42145263158377
5.42163359811871
5.4218204208638845
5.422013100715803
5.42221163860893
5.422416035515713
5.422626292446587
5.42284241044999
5.423064390612381
5.423292234305616
5.423525943843358
5.423765520638471
5.424010966007813
5.424262281306399
5.424519467927419
5.424782527302259
5.425051460900528
5.425326270230072
5.4256069568370044
5.425893522305729
5.426185968258959
5.4264842963577475
5.426788508301514
5.427098605828064
5.427414590713624
5.427736464772863
5.428064229858922
5.428397887863447
5.428737440010242
5.4290828861926705
5.42943422838479
5.429791468745694
5.430154609473153
5.430523652803655
5.4308986010124345
5.431279456413518
5.431666221359751
5.432058898242844
5.432457489493407
5.432861997580987
5.433272425014111
5.433688774340324
5.4341110481462325
5.43453924905754
5.434973379739096
5.435413442894938
5.435859441268331
5.436311377049395
5.436769251688785
5.437233067713351
5.437702827722715
5.438178534355712
5.438660190290435
5.439147798244276
5.439641360973969
5.440140881275633
5.440646361984812
5.4411578059765215
5.441675216165295
5.442198595505222
5.442727946990009
5.443263273653007
5.443804578567273
5.444351864845617
5.444905135640639
5.4454643941447936
5.446029646002209
5.4466008976384535
5.447178152158374
5.447761412687269
5.448350682390412
5.448945964473106
5.449547262180722
5.45015457879876
5.450767917652892
5.451387282109016
5.4520126755733065
5.452644101492269
5.453281563352792
5.453925064682198
5.454574609048304
5.45523020005947
5.455891841364661
5.456559536653498
5.4572332896588245
5.457913106612546
5.45859899343064
5.459290953877593
5.459988991758804
5.460693110920658
5.461403315250573
5.462119608677067
5.462841995169817
5.46357047873972
5.464305063438957
5.465045753361052
5.465792552640941
5.466545465455034
5.467304496021277
5.468069648599225
5.468840927490101
5.469618337036867
5.470401881624294
5.471191565732354
5.471987396878136
5.472789381282196
5.473597523417217
5.474411827798004
5.475232298981556
5.4760589415671355
5.476891760196345
5.4777307595531965
5.478575944364184
5.47942731939836
5.480284889467408
5.481148659425724
5.482018634170486
5.482894818641733
5.483777217822446
5.484665836738625
5.485560680459368
5.486461754096951
5.487369062970114
5.488282615551552
5.489202418318542
5.490128476495306
5.491060795349637
5.4919993801929765
5.492944236380501
5.49389536931121
5.494852784428002
5.495816487217773
5.496786483211497
5.497762777984314
5.498745377155623
5.4997342863891685
5.500729511393132
5.501731057920224
5.502738931767772
5.5037531387778245
5.504773684837231
5.5058005761972355
5.506833822106759
5.507873429368343
5.508919403951201
5.50997175186974
5.511030479183658
5.512095591998038
5.513167096463452
5.514244998776054
5.5153293051776835
5.516420021955968
5.517517155444415
5.518620712022524
5.519730698115887
5.52084712019629
5.521969984781819
5.523099298436968
5.524235067772743
5.525377299446767
5.526526000682374
5.527681181465962
5.528842849193647
5.5300110107565486
5.531185673093085
5.532366843189095
5.533554528077943
5.534748734840643
5.5359494706059715
5.537156742550583
5.538370557899136
5.539590923924399
5.540817847947386
5.542051337337462
5.54329139951248
5.5445380419388925
5.54579127213188
5.547051097655478
5.5483175261226965
5.5495905651956505
5.550870222585691
5.552156506239426
5.553449425052187
5.554748987071904
5.556055200222784
5.557368072478962
5.558687611864642
5.560013826454227
5.56134672437245
5.562686313794519
5.564032602946246
5.565385600104017
5.566745312991622
5.568111749728265
5.569484919196752
5.57086483033209
5.5722514921216355
5.573644913605265
5.575045103875521
5.576452072077766
5.577865827410357
5.579286379124798
5.580713734765766
5.582147895478886
5.583588872646316
5.585036679290241
5.58649132849412
5.587952832581734
5.589421189910061
5.590896408162098
5.592378500576076
5.593867480452363
5.595363361142664
5.59686614509687
5.598375835999018
5.599892447183353
5.601415992046862
5.602946484049538
5.604483930924998
5.606028333409683
5.607579704049776
5.609138055873299
5.610703401970858
5.612275753187486
5.613855111963955
5.6154414924305245
5.617034903579051
5.618635353108168
5.620242850093054
5.621857392085004
5.623478913077781