3.357845606259024
3.357831510881204
3.3578201856977428
3.357811666333855
3.3578059587793057
3.35780306330047
3.3578029851884623
3.357805725903011
3.3578112718093602
3.3578195707185
3.357830644342505
3.357844549481605
3.3578613120432332
3.3578808872901287
3.3579032653954326
3.3579284574937978
3.3579564695914534
3.357987299843893
3.3580209449238607
3.3580574019967124
3.3580966725141668
3.3581387580821525
3.358183660317716
3.3582313790604843
3.3582819135758117
3.358335264251632
3.3583914314900762
3.3584504156412422
3.3585122162451837
3.3585768334461226
3.358644267676261
3.358714519382007
3.3587875890239802
3.3588634770770196
3.3589421840301905
3.3590237103867904
3.3591080566643545
3.359195223007031
3.3592852093560523
3.359378016224891
3.3594736441468243
3.3595720936693816
3.3596733653543582
3.3597774597778174
3.359884377530099
3.359994119215831
3.360106685328815
3.360222075597011
3.3603402904767252
3.3604613306160145
3.3605851966772455
3.360711889337105
3.360841409286606
3.3609737572310983
3.3611089338902773
3.361246939998193
3.361387776303261
3.3615314435682677
3.3616779425703873
3.361827274101185
3.3619794389666318
3.362134437987111
3.362292271997435
3.362452941846847
3.3626164483990406
3.3627827921485083
3.3629519723360923
3.363123989732284
3.363298845320082
3.3634765400969946
3.36365707507505
3.363840451280814
3.364026669755399
3.3642157315544785
3.3644076377483048
3.3646023894217176
3.3647999876741634
3.3650004336197044
3.365203728387039
3.3654098731195106
3.3656188689751296
3.365830717126582
3.3660454182627713
3.3662629715214707
3.366483377902957
3.366706638648896
3.3669327550156916
3.367161728274496
3.3673935597112314
3.367628250626603
3.36786580233612
3.3681062161701085
3.368349493473734
3.368595635607013
3.3688446439448367
3.3690965198769853
3.369351264808148
3.3696088801579402
3.369869367360925
3.3701327270563533
3.370398957552137
3.3706680600845087
3.3709400362332076
3.371214887593032
3.371492615773853
3.371773222400644
3.372056709113494
3.372343077567636
3.3726323294334666
3.3729244663965687
3.373219490157733
3.373517402432981
3.3738182049535905
3.3741218994661155
3.3744284877324104
3.374737971529655
3.375050351979688
3.3753656283484776
3.375683802153242
3.3760048751640714
3.376328849166415
3.376655725961102
3.3769855073643664
3.377318195207872
3.377653791338734
3.377992297619546
3.378333715928403
3.378678048158928
3.379025296220295
3.379375462037256
3.3797285475501657
3.3800845531810566
3.380443477687889
3.3808053230810446
3.381170091497438
3.381537785089786
3.381908406026637
3.3822819564924007
3.3826584386873786
3.3830378548277924
3.383420207145814
3.3838054978895973
3.3841937293233064
3.38458490372715
3.3849790233974058
3.3853760906464583
3.3857761053923126
3.3861790670762386
3.38658497805567
3.386993840710408
3.3874056574364655
3.3878204306461037
3.388238162767859
3.3886588562465825
3.389082513543467
3.389509137136086
3.389938729518423
3.390371293200908
3.390806830710451
3.391245343627357
3.3916868305312797
3.3921312935718575
3.3925787353495593
3.3930291584814625
3.393482565601289
3.393938959359442
3.3943983424230417
3.3948607174759617
3.3953260872188658
3.3957944543692435
3.396265821661451
3.396740191846745
3.397217567509079
3.397697947247178
3.3981813321899357
3.3986677252436737
3.399157129331844
3.399649547395074
3.400144982391205
3.4006434372953347
3.401144915099856
3.4016494188145012
3.402156951466383
3.4026675161000357
3.4031811156144007
3.4036977488030744
3.4042174168569335
3.404740122879202
3.405265869990665
3.4057946613297103
3.406326500052372
3.406861389332376
3.4073993323611824
3.407940332348031
3.408484392519985
3.409031516121979
3.4095817062722107
3.410134961836289
3.4106912840491597
3.411250676246435
3.4118131417817867
3.41237868402699
3.4129473063719744
3.4135190122248673
3.4140938050120466
3.4146716881781853
3.415252665186301
3.4158367395178044
3.416423914563622
3.4170141899090654
3.417607567097534
3.4182040496533443
3.4188036411193514
3.4194063450570007
3.420012165046372
3.4206211046862376
3.4212331675941092
3.421848357406288
3.422466677777918
3.42308813191996
3.4237127186932614
3.4243404405827493
3.4249713013918197
3.4256053049430135
3.426242455078076
3.426882755658004
3.427526210563112
3.4281728236930764
3.4288225989669976
3.4294755403234567
3.43013165061254
3.430790928500435
3.431453377297461
3.432119001029417
3.4327878037418063
3.433459789499902
3.4341349623888022
3.434813326513487
3.435494885998882
3.4361796449899145
3.4368676076515734
3.4375587757980277
3.438253147734256
3.4389507275194893
3.4396515195224584
3.4403555281323794
3.4410627577590183
3.4417732128327563
3.442486897804654
3.4432038171465162
3.4439239753509607
3.444647376931479
3.4453740238689368
3.4461039170127665
3.4468370604180434
3.4475734581762127
3.448313114398998
3.4490560332184583
3.449802218787046
3.4505516752776666
3.4513044068837377
3.452060417819248
3.4528197123067357
3.4535822933383784
3.4543481641731164
3.4551173288646737
3.4558897914871918
3.4566655561352833
3.457444626924094
3.4582270079893553
3.4590127034874447
3.4598017175954427
3.460594054511191
3.461389718385571
3.462188712330829
3.462991040182534
3.463796706190128
3.4646057146240397
3.4654180697757346
3.466233775957785
3.4670528375039265
3.4678752587691157
3.468701044129598
3.4695301979829636
3.4703627247150504
3.471198628508563
3.4720379136834367
3.4728805846161603
3.4737266457046703
3.474576101368411
3.475428956048397
3.476285214207274
3.4771448803293845
3.4780079589208293
3.4788744545095276
3.479744371606637
3.4806177146606627
3.4814944882662977
3.482374697050797
3.4832583456635806
3.484145438776298
3.4850359810828957
3.485929977299684
3.486827432165404
3.4877283504412926
3.488632736911154
3.4895405963814237
3.49045193368124
3.4913667536625126
3.4922850611999894
3.4932068611913287
3.49413215855717
3.4950609582411993
3.4959932652102284
3.496929084454256
3.4978684209865505
3.4988112798433906
3.4997576656406193
3.500707583067102
3.501661037235788
3.502618033283259
3.5035785763698035
3.5045426716794954
3.5055103244202632
3.506481539823971
3.5074563231464904
3.5084346796677806
3.509416614691961
3.5104021335473923
3.511391241586753
3.512383944187116
3.5133802467500286
3.5143801547015934
3.515383673492544
3.5163908085983273
3.517401565519183
3.518415949780226
3.5194339669315258
3.520455622440449
3.521480920882858
3.5225098676209163
3.5235424682942007
3.5245787285676164
3.525618654131484
3.5266622507016185
3.5277095240194205
3.528760479851956
3.5298151239920466
3.530873462258351
3.531935500495457
3.533001244573962
3.5340707003905694
3.5351438738681664
3.536220770955924
3.5373013976293755
3.538385759890513
3.5394738637678747
3.540565715316638
3.5416613206187053
3.5427606857828033
3.5438638164803846
3.544970717773409
3.546081395782316
3.5471958566995356
3.5483141067447064
3.5494361521647706
3.5505619992340702
3.551691654254439
3.5528251235552997
3.5539624134937626
3.5551035304547183
3.5562484808509387
3.557397271123173
3.558549907740246
3.5597063971991574
3.5608667460251837
3.5620309607719736
3.5631990480216524
3.564371014384924
3.5655468665011663
3.5667266110385434
3.5679102546797714
3.569097803101944
3.5702892623917393
3.5714846393058934
3.572683940630357
3.573887173180395
3.575094343800695
3.5763054593654737
3.577520526778583
3.5787395529736177
3.5799625449140233
3.581189509593208
3.5824204540346454
3.5836553852919923
3.5848943104491906
3.5861372366205857
3.587384170951036
3.588635120616024
3.5898900928217707
3.5911490948053477
3.5924121338347925
3.5936792172092256
3.5949503521408097
3.5962255452321346
3.5975048036474737
3.59878813469845
3.6000755457280142
3.6013670441105674
3.602662637252075
3.6039623325901826
3.6052661375943367
3.606574059765899
3.6078861066382713
3.609202285777012
3.610522604779956
3.611847071277338
3.6131756929319128
3.6145084774390797
3.615845432527002
3.617186565956737
3.6185318855223545
3.6198813990510668
3.6212351144033503
3.622593039473078
3.623955182187641
3.625321550508082
3.626692152429218
3.6280669959797764
3.6294460892225215
3.6308294402543875
3.6322170572066073
3.633608948244848
3.6350051215693444
3.6364055854150292
3.637810348051673
3.6392194177840165
3.6406328029519073
3.6420505119304365
3.6434725531300787
3.6448989349968275
3.6463296660123388
3.647764754694066
3.6492042095954056
3.6506480393058376
3.6520962524510643
3.6535488576709776
3.655005863088164
3.6564672771344267
3.6579331085147584
3.659403365970883
3.6608780582813907
3.6623571942618964
3.6638407827651767
3.665328832681324
3.666821352937893
3.6683183525000493
3.6698198403707245
3.6713258255907637
3.6728363172390757
3.674351324432793
3.67587085632742
3.6773949221169913
3.6789235310342225
3.6804566923506736
3.681994415376901
3.6835367094626195
3.685083583996859
3.686635048408126
3.688191112164563
3.689751784774115
3.691317075784686
3.692886994784309
3.6944615514013055
3.6960407553230747
3.697624616313387
3.6992131440643465
3.7008063482966227
3.7024042387717717
3.704006825292401
3.705614117702347
3.7072261258868338
3.7088428597726533
3.710464329328336
3.7120905445643215
3.7137215155331327
3.7153572523295555
3.71699776509081
3.7186430639967325
3.7202931592699477
3.7219480611760534
3.7236077800238
3.7252723261652685
3.7269417099960567
3.7286159419554608
3.730295032526659
3.7319789922368996
3.7336678316576846
3.7353615614049622
3.737060192139307
3.7387637345661218
3.740472199435814
3.7421855975521177
3.74390393974129
3.745627236848098
3.7473554997628407
3.749088739421644
3.750826966806655
3.7525701929462465
3.754318428915207
3.7560716858349457
3.7578299748736947
3.759593307246705
3.7613616942164554
3.7631351470928553
3.7649136772334475
3.7666972960436182
3.7684860149768054
3.7702798455347044
3.772078799267483
3.7738828877739876
3.7756921227019613
3.7775065157482537
3.779326078659041
3.781150823230036
3.7829807613067117
3.78481590478452
3.786656265609105
3.7885018557765364
3.790352687338347
3.792208772473492
3.7940701233200267
3.7959367520253937
3.797808670788377
3.799685891859329
3.8015684275403987
3.803456290185764
3.80534949220186
3.807248046047617
3.809151964234693
3.811061259327708
3.812975943944483
3.814896030756279
3.816821532488036
3.8187524619186175
3.820688831881047
3.822630655262759
3.824577945005844
3.8265307141072915
3.8284889756192424
3.8304527426492396
3.8324220283604764
3.834396845972053
3.8363772087592305
3.838363130053684
3.8403546232437678
3.8423517017747644
3.8443543790649706
3.846362668317333
3.8483765830637107
3.85039613692691
3.8524213435877686
3.8544522167854116
3.8564887703175317
3.8585310180406482
3.860578973870389
3.862632651781758
3.8646920658094093
3.8667572300479245
3.868828158652095
3.870904865837198
3.8729873658792764
3.8750756731154254
3.8771698019440755
3.879269766825283
3.8813755822810108
3.8834872628954265
3.8856048233151883
3.887728278249742
3.889857642471615
3.891992930816714
3.8941341581846234
3.896281339538906
3.8984344899074084
3.90059362438256
3.9027587579755
3.904929905683177
3.9071070827130763
3.909290304338458
3.9114795858983498
3.913674942797863
3.9158763905085126
3.918083944568523
3.920297620583153
3.9225174342250178
3.924743401234404
3.9269755374196014
3.9292138586572265
3.931458380892548
3.93370912013982
3.9359660924826163
3.938229314074159
3.9404988011376596
3.942774569966654
3.945056636925346
3.9473450184489516
3.9496397310440328
3.951940791288862
3.954248215833754
3.956562021401427
3.958882224787354
3.961208842860118
3.963541892549704
3.965881390658604
3.9682273541406103
3.9705798000841566
3.9729387456522316
3.975304208082746
3.977676204688901
3.9800547528595565
3.9824398700596055
3.9848315738303475
3.9872298817898675
3.989634811633416
3.992046381133791
3.9944646081417203
3.9968895105862496
3.9993211064751324
4.001759413895224
4.00420445101287
4.006656236074308
4.009114787406062
4.011580123415351
4.014052262590487
4.016531223501285
4.019017024799469
4.0215096852190895
4.02400922357693
4.026515658772933
4.029029009790616
4.03154929564862
4.034076535286415
4.036610747838536
4.039151952537551
4.041700168701287
4.044255415733258
4.046817713123108
4.049387080447046
4.0519635373682785
4.05454710363747
4.0571377990931685
4.059735643662273
4.062340657360471
4.064952860292703
4.067572272653613
4.070198914728016
4.072832806891355
4.075473969610171
4.078122423442571
4.0807781890387025
4.083441287141227
4.0861117385857995
4.088789564301548
4.091474785311561
4.094167422733379
4.096867497779473
4.099575031757756
4.102290046072063
4.105012562119971
4.107742601324037
4.110480185277222
4.1132253356699096
4.115978074290403
4.11873842302543
4.121506403860668
4.124282038881254
4.127065350272313
4.129856360319487
4.132655091409452
4.135461566030466
4.138275806772895
4.141097836329754
4.143927677497256
4.146765353175357
4.149610886368297
4.152464300185172
4.155325617840474
4.158194862654666
4.1610720580547405
4.1639572275747865
4.16685039485657
4.169751583650104
4.17266081781423
4.175578121317206
4.178503518237287
4.181437032771522
4.184378689296756
4.1873285121616535
4.190286525785705
4.19325275470081
4.196227223551882
4.199209957097462
4.202200980210331
4.205200317878127
4.208207995203973
4.211224037407103
4.214248469823492
4.217281317906493
4.220322607227475
4.223372363476472
4.226430612462826
4.229497380115845
4.2325726924854585
4.235656575742879
4.238749056181269
4.2418501602164085
4.2449599143873815
4.248078345357241
4.2512054799137085
4.254341344969848
4.257485967564775
4.2606393748643425
4.2638015941618574
4.266972652810326
4.270152578090486
4.273341397552234
4.276539138888757
4.279745829923579
4.282961498611283
4.286186173038241
4.289419881423359
4.292662652118804
4.29591451361077
4.299175494520212
4.302445623603616
4.305724929753753
4.309013442000453
4.312311189511376
4.315618201592786
4.318934507690344
4.322260137389883
4.325595120418223
4.328939486643952
4.33229326607824
4.335656488875656
4.33902918533497
4.342411385899991
4.3458031211603885
4.349204421852526
4.352615318860305
4.356035843216109
4.359466026328155
4.362905899651829
4.366355494543685
4.369814842511302
4.373283975214157
4.376762924464502
4.38025172222824
4.38375040062582
4.387258991933124
4.39077752858237
4.39430604316302
4.39784456842269
4.401393137268072
4.404951782765859
4.408520538143675
4.412099436791021
4.415688512260215
4.419287798267344
4.422897328693231
4.426517137584389
4.430147259154011
4.433787727782935
4.437438578020637
4.44109984458623
4.444771562369454
4.448453766431704
4.452146492007024
4.455849774474657
4.459563649065201
4.463288151333531
4.467023317088338
4.470769182315324
4.474525783178237
4.478293156019945
4.482071337363504
4.48586036391322
4.489660272555757
4.493471100361206
4.4972928845842
4.501125662665021
4.504969472230702
4.508824351096175
4.51269033726538
4.516567468932427
4.520455784482728
4.524355322494164
4.528266121738254
4.5321882211813165
4.536121659985675
4.54006647751083
4.544022713314669
4.5479904071546775
4.551969598989158
4.555960328978455
4.559962637486198
4.563976565083384
4.568002152466758
4.572039440444552
4.576088470029147
4.580149282441276
4.584221919111303
4.588306421680525
4.592402832002456
4.596511192144153
4.600631544387527
4.604763931230685
4.6089083953892604
4.613064979797766
4.617233727610959
4.621414682205212
4.625607887179893
4.629813386358757
4.634031223791351
4.638261443754427
4.642504090753365
4.646759209523613
4.651026845032124
4.655307042478826
4.6595998472980735
4.6639053051601485
4.66822346197273
4.6725543638824085
4.676898057276459
4.681254588852729
4.685624005427146
4.690006353955646
4.694401681639541
4.698810035927098
4.703231464515095
4.707666015350417
4.712113736631657
4.716574676810712
4.721048884594419
4.725536408946186
4.7300372990876385
4.734551604500285
4.739079374927182
4.743620660374628
4.748175511113871
4.7527439776828
4.757326110887697
4.7619219618049575
4.766531581782854
4.771155022443312
4.775792335683671
4.780443573678501
4.785108788881398
4.789788034026817
4.794481362131911
4.799188826498379
4.803910480703974
4.8086463784678966
4.813396573757907
4.818161120844913
4.822940074292368
4.827733488958203
4.832541419996777
4.8373639228608285
4.842201053303457
4.847052867380109
4.851919421450585
4.85680077218108
4.8616969765461935
4.866608091831017
4.871534175633184
4.876475285864967
4.8814314807553965
4.8864028188523605
4.891389359024772
4.8963911604647015
4.901408282689575
4.906440785544357
4.911488729203759
4.916552174174479
4.921631181297444
4.926725811750073
4.93183612704857
4.936962189050219
4.942104059961956
4.9472618022387245
4.952435478565336
4.957625151972238
4.962830885840956
4.968052743906516
4.973290790259847
4.97854508935023
4.983815705987761
4.989102705345827
4.99440615296362
4.999726114748652
5.005062656979296
5.010415846307366
5.015785749760687
5.021172434745718
5.026575969050181
5.031996420845702
5.037433858690503
5.04288835153209
5.048359968709975
5.053848779958422
5.059354855409208
5.064878265594426
5.070419081449285
5.075977374314952
5.081553215941423
5.087146678489423
5.092757834339771
5.098386756173415
5.104033517163529
5.109698190904657
5.115380851415692
5.121081573142885
5.126800430962899
5.132537500185862
5.13829285655847
5.144066576267106
5.149858735940975
5.155669412655295
5.161498683934485
5.167346627755405
5.173213322550601
5.179098847211597
5.185003281092213
5.190926704011897
5.196869196259111
5.202830838594722
5.208811712255433
5.2148118989572545
5.220831480898988
5.226870540765743
5.232929161732513
5.23900742746773
5.245105422136905
5.251223230426347
5.257360937575226
5.26351862904045
5.269696390738895
5.275894309100513
5.282112471072091
5.288350964121089
5.294609876239492
5.300889295947678
5.307189312298372
5.313510014880574
5.319851493823561
5.326213839800921
5.332597144034617
5.339001498299074
5.34542699492534
5.3518737268052385
5.3583417873956
5.364831270722503
5.37134227138557
5.377874884562296
5.384429206012409
5.391005332082288
5.39760335970941
5.404223386426839
5.41086551036775
5.417529830270015
5.424216445480795
5.430925455981577
5.437656962252644
5.444411065223478
5.451187866444983
5.457987468098282
5.464809972999573
5.471655484604994
5.47852410701557
5.485415944982198
5.492331103910663
5.49926968986672
5.5062318095812035
5.513217570455195
5.5202270805652605
5.52726044866869
5.53431778420883
5.5413991973204375
5.548504798835094
5.555634700286698
5.562789013916947
5.569967852680925
5.577171330252736
5.584399561031156
5.591652660145401
5.59893074346087
5.606233927585012
5.61356232987322
5.620916068428483
5.628295261601121